ID code:,985,,Test number:,1407,,Barometric press. (mmHg):,769,,t,Rf,VT,VE,VO2,VCO2,O2exp,CO2exp,VE/VO2,VE/VCO2,VO2/Kg,R,FeO2,FeCO2,HR,VO2/HR,Load1,Load2,Load3,Phase,Marker,FetO2,FetCO2,FiO2,FiCO2,Ti,Te,Ttot,Ti/Ttot,IV,PetO2,PetCO2,P(a-et)CO2,SpO2,VD(phys),VD/VT,Env. Temp.,Analyz. Temp.,Analyz. Press.,Env. Press.,Batteries,PaCO2,PaO2,PH,SaO2,HCO3-,Bias Flow,La-,Hb,Steady State,EEm,EEh,EEkc,EEbsa,EEkg,PROg,PROkc,FATg,FATkc,CHOg,CHOkc,PRO%,FAT%,CHO%,npRQ,t Rel,mark Speed,mark Dist.,ST I,ST II,ST III,ST aVR,ST aVL,ST aVF,ST V1,ST V2,ST V3,ST V4,ST V5,ST V6,S I,S II,S III,S aVR,S aVL,S aVF,S V1,S V2,S V3,S V4,S V5,S V6,P Syst,P Diast,Symptom,DP,Stage,RR,METS,Phase time,Qt,SV,Vt/FVC,Long,Lat,Alt,GPS Speed,GPS Dist.,predVO2,BR,O2 Cost,EEtot,IC,Step,LogVE,P(A-a)O2,User 1,User 2,User 3
Last name:,FLANDERS,,Test date:,21/02/2019,,Temperature (degrees C):,22,,hh:mm:ss,b/min,l,l/min,ml/min,ml/min,ml,ml,---,---,ml/min/Kg,---,%,%,bpm,ml/bpm,Watt,Watt,Watt,---,---,%,%,%,%,sec,sec,sec,---,l,mmHg,mmHg,Kpa,%,ml,---,°C,°C,mmHg,mmHg,mV,Kpa,Kpa,---,%,meq/L,ml/sec,mmol,mmol/L,---,Kcal/min,Kcal/h,Kcal/day,Kcal/m^2/day,Kcal/Kg/day,g/day,Kcal/day,g/day,Kcal/day,g/day,Kcal/day,%,%,%,---,s,m/s,m,mm,mm,mm,mm,mm,mm,mm,mm,mm,mm,mm,mm,mV/sec,mV/sec,mV/sec,mV/sec,mV/sec,mV/sec,mV/sec,mV/sec,mV/sec,mV/sec,mV/sec,mV/sec,mmHg,mmHg,---,mmHg/min,#,mS,---,hh:mm:ss,l/min,ml/beat,---,---,---,m,m/s,m,%,%,ml/Kg/m,Kcal,l,#,l/min,Kpa,---,---,---
First name:,NED,,Test time:,15:53,,Humidity;%,45,,,,,,,,,,,,,,,,,,,,,,,,,,,,,,,,,,,,,,,,,,,,,,,,,,,,,,,,,,,,,,,,,,,,,,,,,,,,,,,,,,,,,,,,,,,,,,,,,,,,,,,,,,,,,,,,,,,,,,,,
Sex:,M,,N. of steps:,1259,,Temp. flowm. (degrees C):,34,,00:00:04,16.12903226,0.183564112,2.960711482,85.15169341,69.80518104,32.53163983,5.302963232,34.76984853,42.41392169,1.37341441,0.819774431,17.72222222,2.888888889,82,1.038435286,0,0,0,0,,16.76,3.81,21.03,0.07,2.02,1.7,3.72,0.543010753,0.883,121,27,0,0,0,0,21,0,619,769,0,0,0,0,0,0,0,0,0,,0.408307562,24.49845371,587.9628889,352.6802258,9.483272402,0,0,37.97772217,356.9905884,55.74483465,234.1283055,0,60.71651717,39.82025226,0.819774431,0,0,0,0,0,0,0,0,0,0,0,0,0,0,0,0,0,0,0,0,0,0,0,0,0,0,0,0,0,0,0,0,0,0.392404117,00:00:00,0,0,0,E 000°00.000,N 00°00.000,0,0,0,3,97,0,0,0,1,0.471396088,20.23981878,0,0,0
Age:,40,,Duration (hh:mm:ss):,00:29:30,,Humidity flowm.;%,100,,00:00:06,16.23815968,0.172346305,2.798586821,79.5330205,67.79862895,29.98213828,5.302963232,35.18773465,41.27792648,1.282790653,0.852458872,17.3964497,3.076923077,82,0.969914884,0,0,0,0,,16.26,4.14,20.69,0.18,2.39,1.305,3.695,0.646820027,0.504,117,29,0,0,0,0,21,0,620,769,0,0,0,0,0,0,0,0,0,,0.384581255,23.07487527,553.7970065,332.1863624,8.932209782,0,0,29.03940224,272.9703811,67.57156824,283.8005866,0,49.29069278,51.24632009,0.852458872,2,0,0,0,0,0,0,0,0,0,0,0,0,0,0,0,0,0,0,0,0,0,0,0,0,0,0,0,0,0,0,0,0,0.366511615,00:00:02,0,0,0,E 000°00.000,N 00°00.000,0,0,0,3,97,0,0.006409688,0,2,0.446938785,19.91259394,0,0,0
Height (cm):,163,,BSA (m^2):,1.667127459,,STPD:,0.836527923,,00:00:08,19.25545571,0.296761981,5.71428718,180.8585845,155.8968552,50.58211083,10.09602615,31.59533288,36.65428128,2.917073943,0.86198206,17.04467354,3.402061856,82,2.205592494,0,0,0,0,,16,4.31,20.72,0.14,1.95,1.166,3.116,0.625802311,0.483,115,31,0,0,0,0,21,0,620,769,0,0,0,0,0,0,0,0,0,,0.876670718,52.60024307,1262.405834,757.2341433,20.36138441,0,0,61.77376002,580.6733442,163.931585,688.5126569,0,45.99735907,54.53972396,0.86198206,2,0,0,0,0,0,0,0,0,0,0,0,0,0,0,0,0,0,0,0,0,0,0,0,0,0,0,0,0,0,0,0,0,0.833449698,00:00:04,0,0,0,E 000°00.000,N 00°00.000,0,0,0,7,95,0,0.027430554,0,3,0.756962063,19.94146672,0,0,0
Weight (Kg):,62,,BMI (Kg/m^2):,23.33546614,,BTPS insp:,1.106382655,,00:00:12,20.05347594,0.408940049,8.200669437,311.9016277,262.0057881,66.79694072,16.11284982,26.29248682,31.29957356,5.030671415,0.840026998,16.33416459,3.940149626,82,3.803678387,0,0,0,0,,15.67,4.55,20.73,0.12,1.717,1.275,2.992,0.573863636,0.445,113,32,0,0,0,0,21,0,620,769,0,0,0,0,0,0,0,0,0,,1.503401214,90.20407286,2164.897749,1298.579623,34.91770562,0,0,123.4776772,1160.690166,241.8646114,1015.831368,0,53.61408716,46.92283359,0.840026998,4,0,0,0,0,0,0,0,0,0,0,0,0,0,0,0,0,0,0,0,0,0,0,0,0,0,0,0,0,0,0,0,0,1.43733469,00:00:08,0,0,0,E 000°00.000,N 00°00.000,0,0,0,13,93,0,0.106766285,0,4,0.913849306,19.95109098,0,0,0
Notes:,,,HR max (bpm):,180,,BTPS exp:,1.019800622,,00:00:14,19.34235977,0.365088623,7.061675484,263.2912803,217.8629796,60.06625661,13.86928845,26.82077233,32.41337973,4.246633553,0.827459912,16.45251397,3.798882682,82,3.210869271,0,0,0,0,,15.87,4.35,20.75,0.11,1.914,1.188,3.102,0.617021277,0.454,114,31,0,0,0,0,21,0,620,769,0,0,0,0,0,0,0,0,0,,1.265000836,75.90005018,1821.601204,1092.658629,29.38066459,0,0,112.421034,1056.75772,184.4338887,774.6223325,0,58.01257251,42.52425452,0.827459912,2,0,0,0,0,0,0,0,0,0,0,0,0,0,0,0,0,0,0,0,0,0,0,0,0,0,0,0,0,0,0,0,0,1.213323872,00:00:10,0,0,0,E 000°00.000,N 00°00.000,0,0,0,11,94,0,0.152906319,0,5,0.848907756,19.9703395,0,0,0
,,,,,,UN (g/day):,0,,00:00:16,21.86588921,0.40995985,8.964136659,324.2357739,269.6300748,67.9187214,15.19502926,27.64696983,33.24605635,5.229609257,0.831586446,16.56716418,3.706467662,82,3.954094804,0,0,0,0,,15.66,4.45,20.74,0.11,1.682,1.062,2.744,0.612973761,0.434,113,32,0,0,0,0,21,0,621,769,0,0,0,0,0,0,0,0,0,,1.559467864,93.56807183,2245.633724,1347.007819,36.21989877,0,0,135.1325754,1270.246209,235.1055659,987.4433767,0,56.56515553,43.97170234,0.831586446,2,0,0,0,0,0,0,0,0,0,0,0,0,0,0,0,0,0,0,0,0,0,0,0,0,0,0,0,0,0,0,0,0,1.494174073,00:00:12,0,0,0,E 000°00.000,N 00°00.000,0,0,0,13,93,0,0.199980797,0,6,0.952508469,19.96071524,0,0,0
4-point,25.7,,,,,AMR (Kcal/day),0,,00:00:22,18.00720288,1.011642217,18.21684664,587.3729036,520.7986507,172.7542253,35.18312145,31.01410795,34.9786748,9.47375651,0.886657603,17.0766129,3.477822581,81,7.251517328,0,0,0,0,,15.8,4.42,20.84,0.06,1.836,1.496,3.332,0.551020408,1.038,114,31,0,0,0,0,21,0,620,769,0,0,0,0,0,0,0,0,0,,2.865084879,171.9050928,4125.722226,2474.749128,66.54390688,0,0,164.7560993,1548.707334,618.8525911,2599.180883,0,37.53784789,62.99941537,0.886657603,6,0,0,0,0,0,0,0,0,0,0,0,0,0,0,0,0,0,0,0,0,0,0,0,0,0,0,0,0,0,0,0,0,2.706787574,00:00:18,0,0,0,E 000°00.000,N 00°00.000,0,0,0,25,86,0,0.421208435,0,7,1.260473202,20.05695784,0,0,0
,,,,,,VD (ml):,0,,00:00:25,18.05054152,0.946374977,17.08258081,542.4809608,481.3843857,162.0463188,32.73559995,31.48973336,35.48636249,8.749692916,0.887375633,17.12284483,3.459051724,81,6.697295812,0,0,0,0,,15.97,4.37,20.83,0.09,1.818,1.506,3.324,0.546931408,0.957,115,31,0,0,0,0,21,0,620,769,0,0,0,0,0,0,0,0,0,,2.646592998,158.7955799,3811.093917,2286.02432,61.46925672,0,0,151.200154,1421.281448,573.8781608,2410.288276,0,37.29326746,63.24400102,0.887375633,3,0,0,0,0,0,0,0,0,0,0,0,0,0,0,0,0,0,0,0,0,0,0,0,0,0,0,0,0,0,0,0,0,2.499912262,00:00:21,0,0,0,E 000°00.000,N 00°00.000,0,0,0,23,87,0,0.559000381,0,8,1.232553484,20.04733358,0,0,0
,,,,,,LT:,--:--:--,,00:00:28,18.72659176,0.813800896,15.23971715,438.7058537,397.4620744,142.0582266,26.10689591,34.73789334,38.34256935,7.075900866,0.905987625,17.45614035,3.20802005,81,5.416121651,0,0,0,0,,16.96,3.54,20.83,0.09,1.922,1.282,3.204,0.599875156,0.936,122,25,0,0,0,0,21,0,621,769,0,0,0,0,0,0,0,0,0,,2.150407419,129.0244451,3096.586683,1857.438473,49.9449465,0,0,102.0700133,959.4581251,512.8023106,2153.769704,0,30.98437807,69.55302482,0.905987625,3,0,0,0,0,0,0,0,0,0,0,0,0,0,0,0,0,0,0,0,0,0,0,0,0,0,0,0,0,0,0,0,0,2.021685962,00:00:24,0,0,0,E 000°00.000,N 00°00.000,0,0,0,18,88,0,0.678925392,0,9,1.182976907,20.04733358,0,0,0
,,,,,,RC:,--:--:--,,00:00:32,18.21493625,0.80462269,14.65615101,417.0413919,382.0712497,140.6305057,25.80095573,35.14315676,38.35973269,6.726474062,0.916147071,17.47782003,3.206590621,81,5.148659159,0,0,0,0,,16.98,3.57,20.82,0.09,2.014,1.28,3.294,0.611414693,0.899,122,25,0,0,0,0,21,0,620,769,0,0,0,0,0,0,0,0,0,,2.049455639,122.9673383,2951.21612,1770.240243,47.60025999,0,0,86.54449978,813.518298,512.7523552,2153.559892,0,27.56552774,72.97194799,0.916147071,4,0,0,0,0,0,0,0,0,0,0,0,0,0,0,0,0,0,0,0,0,0,0,0,0,0,0,0,0,0,0,0,0,1.921849732,00:00:28,0,0,0,E 000°00.000,N 00°00.000,0,0,0,17,89,0,0.818920827,0,10,1.166019931,20.03770932,0,0,0
,,,,,,FEV1 (l):,0,,00:00:35,16.75977654,0.768929669,12.88708942,357.1713995,334.8503329,134.7156621,24.57719498,36.08096684,38.48611798,5.760829024,0.937506008,17.5198939,3.196286472,81,4.40952345,0,0,0,0,,17.13,3.52,20.79,0.09,2.342,1.238,3.58,0.654189944,0.799,123,25,0,0,0,0,21,0,620,769,0,0,0,0,0,0,0,0,0,,1.764674923,105.8804954,2541.131889,1524.257713,40.98599822,0,0,55.24105108,519.2658802,484.649485,2035.527837,0,20.43443248,80.10319517,0.937506008,3,0,0,0,0,0,0,0,0,0,0,0,0,0,0,0,0,0,0,0,0,0,0,0,0,0,0,0,0,0,0,0,0,1.64595115,00:00:31,0,0,0,E 000°00.000,N 00°00.000,0,0,0,15,90,0,0.914274091,0,11,1.110154842,20.00883654,0,0,0
,,,,,,FEV1 (l):,0,,00:00:38,20.04008016,0.220276934,4.41436742,118.1444931,107.7913835,38.85440368,6.62870404,37.36414033,40.95287839,1.905556341,0.912369089,17.63888889,3.009259259,82,1.440786502,0,0,0,0,,16.95,3.61,20.78,0.09,2.128,0.866,2.994,0.710754843,0.241,122,26,0,0,0,0,21,0,620,769,0,0,0,0,0,0,0,0,0,,0.58004227,34.8025362,835.2608687,501.0180019,13.4719495,0,0,25.62194013,240.8462372,142.5961262,598.9037301,0,28.83485222,71.70259646,0.912369089,3,0,0,0,0,0,0,0,0,0,0,0,0,0,0,0,0,0,0,0,0,0,0,0,0,0,0,0,0,0,0,0,0,0.544444669,00:00:34,0,0,0,E 000°00.000,N 00°00.000,0,0,0,5,96,0,0.972892021,0,12,0.644868478,19.99921228,0,0,0
,,,,,,FVC (l):,0,,00:00:41,18.11594203,0.387524236,7.020366598,217.8909377,195.8269422,66.49100053,13.15542802,32.21963553,35.84985049,3.514369963,0.898738352,17.15789474,3.394736842,82,2.657206557,0,0,0,0,,16.83,3.68,20.79,0.06,2.294,1.018,3.312,0.69263285,0.415,121,26,0,0,0,0,21,0,619,769,0,0,0,0,0,0,0,0,0,,1.066083563,63.96501377,1535.16033,920.841608,24.76065049,0,0,54.60371476,513.2749188,245.2701444,1030.134606,0,33.43461322,67.10273747,0.898738352,3,0,0,0,0,0,0,0,0,0,0,0,0,0,0,0,0,0,0,0,0,0,0,0,0,0,0,0,0,0,0,0,0,1.004105704,00:00:37,0,0,0,E 000°00.000,N 00°00.000,0,0,0,9,94,0,1.014045167,0,13,0.846359791,20.00883654,0,0,0
,,,,,,FVC (l):,0,,00:00:44,16.80672269,0.549672535,9.238193866,294.1451862,266.3285738,93.82165719,19.27423175,31.40691842,34.68720512,4.744277196,0.905432373,17.06864564,3.506493506,81,3.631422051,0,0,0,0,,16.06,4.39,20.8,0.06,2.248,1.322,3.57,0.629691877,0.51,115,31,0,0,0,0,21,0,619,769,0,0,0,0,0,0,0,0,0,,1.441611395,86.49668368,2075.920408,1245.207975,33.48258723,0,0,68.84047011,647.1004191,342.8514197,1439.975963,0,31.17173551,69.36566339,0.905432373,3,0,0,0,0,0,0,0,0,0,0,0,0,0,0,0,0,0,0,0,0,0,0,0,0,0,0,0,0,0,0,0,0,1.35550777,00:00:40,0,0,0,E 000°00.000,N 00°00.000,0,0,0,12,93,0,1.076737541,0,14,0.965587072,20.0184608,0,0,0
,,,,,,MVV (l/min):,0,,00:00:47,17.75147929,0.685306018,12.16519558,391.9381755,352.7748443,116.7671712,24.16927473,31.03855746,34.48430572,6.321583476,0.900077783,17.03869048,3.526785714,81,4.838742907,0,0,0,0,,15.95,4.54,20.81,0.06,1.832,1.548,3.38,0.542011834,0.629,115,32,0,0,0,0,21,0,618,769,0,0,0,0,0,0,0,0,0,,1.918300724,115.0980434,2762.353042,1656.953718,44.55408133,0,0,96.92101796,911.0575688,444.3188722,1866.139263,0,32.98121402,67.55614633,0.900077783,3,0,0,0,0,0,0,0,0,0,0,0,0,0,0,0,0,0,0,0,0,0,0,0,0,0,0,0,0,0,0,0,0,1.806166707,00:00:43,0,0,0,E 000°00.000,N 00°00.000,0,0,0,16,90,0,1.160735344,0,15,1.085119096,20.02808506,0,0,0
,,,,,,MVV (l/min):,0,,00:00:50,18.61042184,0.75465246,14.04440062,447.11856,405.7123406,128.8008185,26.51481616,31.41090949,34.61664636,7.211589677,0.907393199,17.06756757,3.513513514,81,5.519982222,0,0,0,0,,15.96,4.58,20.8,0.06,1.55,1.674,3.224,0.480769231,0.702,115,33,0,0,0,0,21,0,618,769,0,0,0,0,0,0,0,0,0,,2.192421441,131.5452864,3157.086875,1893.728555,50.92075604,0,0,102.4720969,963.2377104,526.3847045,2210.815759,0,30.51033274,70.02708025,0.907393199,3,0,0,0,0,0,0,0,0,0,0,0,0,0,0,0,0,0,0,0,0,0,0,0,0,0,0,0,0,0,0,0,0,2.060454193,00:00:46,0,0,0,E 000°00.000,N 00°00.000,0,0,0,19,89,0,1.263503398,0,16,1.147503209,20.0184608,0,0,0
,,,,,,IC (l):,0,,00:00:53,19.84126984,0.734256448,14.56858031,448.1848909,414.1352767,126.1493369,25.39303548,32.50573726,35.17831281,7.228788563,0.924027751,17.18055556,3.458333333,81,5.533146801,0,0,0,0,,16.12,4.49,20.8,0.06,1.336,1.688,3.024,0.441798942,0.685,116,32,0,0,0,0,21,0,618,769,0,0,0,0,0,0,0,0,0,,2.20687241,132.4123446,3177.89627,1906.210741,51.25639146,0,0,84.26672007,792.1071686,572.1122167,2402.87131,0,24.92551994,75.61201203,0.924027751,3,0,0,0,0,0,0,0,0,0,0,0,0,0,0,0,0,0,0,0,0,0,0,0,0,0,0,0,0,0,0,0,0,2.065368161,00:00:49,0,0,0,E 000°00.000,N 00°00.000,0,0,0,19,89,0,1.373485744,0,17,1.163417232,20.0184608,0,0,0
,,,,,,IC (l):,0,,00:00:55,20.93510119,0.641454591,13.42891677,395.5867931,368.2942065,111.1582678,21.41581305,33.94682786,36.46247085,6.380432146,0.931007336,17.3290938,3.33863275,81,4.883787569,0,0,0,0,,16.18,4.46,20.8,0.06,1.246,1.62,2.866,0.434752268,0.602,116,32,0,0,0,0,21,0,618,769,0,0,0,0,0,0,0,0,0,,1.951293598,117.0776159,2809.862781,1685.451682,45.32036744,0,0,67.54453212,634.9186019,521.4403534,2190.049484,0,22.59607146,77.94151014,0.931007336,2,0,0,0,0,0,0,0,0,0,0,0,0,0,0,0,0,0,0,0,0,0,0,0,0,0,0,0,0,0,0,0,0,1.822980613,00:00:51,0,0,0,E 000°00.000,N 00°00.000,0,0,0,16,90,0,1.442788511,0,18,1.128040982,20.0184608,0,0,0
,,,,,,VO2max (ml/min):,0,,00:00:59,22.27171492,0.553751738,12.33300084,341.5717855,324.3963368,96.98303912,17.74453082,36.10661465,38.01831105,5.509222347,0.94971643,17.51381215,3.20441989,82,4.16550958,0,0,0,0,,16.3,4.36,20.79,0.06,1.246,1.448,2.694,0.46250928,0.598,117,31,0,0,0,0,21,0,617,769,0,0,0,0,0,0,0,0,0,,1.69276119,101.5656714,2437.576113,1462.141421,39.31574376,0,0,42.506747,399.5634218,488.3618747,2051.119874,0,16.39183366,84.14588011,0.94971643,4,0,0,0,0,0,0,0,0,0,0,0,0,0,0,0,0,0,0,0,0,0,0,0,0,0,0,0,0,0,0,0,0,1.574063528,00:00:55,0,0,0,E 000°00.000,N 00°00.000,0,0,0,14,90,0,1.564257004,0,19,1.091068761,20.00883654,0,0,0
,,,,,,VE/VCO2 slope (---),0,,00:01:01,22.77904328,0.430355862,9.803094814,256.5433738,247.69832,75.97514631,13.25740808,38.2122316,39.57675133,4.137796351,0.96552219,17.65402844,3.08056872,82,3.128577729,0,0,0,0,,16.37,4.27,20.76,0.06,1.394,1.24,2.634,0.529233106,0.439,118,30,0,0,0,0,21,0,617,769,0,0,0,0,0,0,0,0,0,,1.276393318,76.58359908,1838.006378,1102.499013,29.64526416,0,0,21.89040715,205.7698272,390.9813807,1642.121799,0,11.19527275,89.34255173,0.96552219,2,0,0,0,0,0,0,0,0,0,0,0,0,0,0,0,0,0,0,0,0,0,0,0,0,0,0,0,0,0,0,0,0,1.182227529,00:00:57,0,0,0,E 000°00.000,N 00°00.000,0,0,0,11,92,0,1.613742912,0,20,0.991363203,19.97996376,0,0,0
,,,,,,VO2/WR slope (mlO2/watt),0,,00:01:04,22.91825821,0.370187626,8.484055592,220.1579753,214.0030955,65.47119991,11.42176696,38.53621737,39.64454613,3.550935085,0.972043349,17.68595041,3.085399449,83,2.652505726,0,0,0,0,,16.32,4.29,20.77,0.07,1.486,1.132,2.618,0.567608862,0.363,117,30,0,0,0,0,21,0,618,769,0,0,0,0,0,0,0,0,0,,1.097139134,65.82834802,1579.880352,947.6662048,25.48194117,0,0,15.23261288,143.1865611,344.0932124,1445.191492,0,9.063126893,91.47474301,0.972043349,3,0,0,0,0,0,0,0,0,0,0,0,0,0,0,0,0,0,0,0,0,0,0,0,0,0,0,0,0,0,0,0,0,1.014552881,00:01:00,0,0,0,E 000°00.000,N 00°00.000,0,0,0,9,93,0,1.673081224,0,21,0.928603506,19.98958802,0,0,0
,,,,,,lowest VE/VCO2,0,,00:01:06,22.64150943,0.354890616,8.035259237,213.8755964,201.9599913,62.5137781,10.91186665,37.56978063,39.78639129,3.449606393,0.944287215,17.61494253,3.074712644,83,2.576814414,0,0,0,0,,16.28,4.27,20.76,0.07,1.572,1.078,2.65,0.593207547,0.373,117,30,0,0,0,0,21,0,619,769,0,0,0,0,0,0,0,0,0,,1.058488139,63.50928834,1524.22292,914.2809757,24.58424065,0,0,29.4893121,277.1995338,298.8616096,1255.21876,0,18.18628562,82.35138992,0.944287215,2,0,0,0,0,0,0,0,0,0,0,0,0,0,0,0,0,0,0,0,0,0,0,0,0,0,0,0,0,0,0,0,0,0.985601827,00:01:02,0,0,0,E 000°00.000,N 00°00.000,0,0,0,9,94,0,1.709008345,0,22,0.904999893,19.97996376,0,0,0
,,,,,,OUES;ml/min/l/min,0,,00:01:09,22.71006813,0.31103919,7.063721187,187.1662888,170.2157694,54.9672535,9.178205595,37.74034968,41.49862972,3.018811109,0.909436045,17.67213115,2.950819672,82,2.282515717,0,0,0,0,,16.24,4.26,20.78,0.07,1.61,1.032,2.642,0.609386828,0.358,117,30,0,0,0,0,21,0,620,769,0,0,0,0,0,0,0,0,0,,0.918232645,55.09395867,1322.255008,793.1337227,21.32669368,0,0,41.94918514,394.3223403,222.6282933,935.0388319,0,29.82195854,70.71546912,0.909436045,3,0,0,0,0,0,0,0,0,0,0,0,0,0,0,0,0,0,0,0,0,0,0,0,0,0,0,0,0,0,0,0,0,0.86251746,00:01:05,0,0,0,E 000°00.000,N 00°00.000,0,0,0,8,94,0,1.758426364,0,23,0.849033549,19.99921228,0,0,0
,,,,,,PaO2 @ rest (mmHg),0,,00:01:13,19.76284585,0.423217258,8.36397743,261.8791428,237.8625813,72.40584413,14.68512895,31.93831071,35.1630651,4.223857142,0.908291431,17.10843373,3.469879518,82,3.193648083,0,0,0,0,,16.07,4.38,20.78,0.07,1.758,1.278,3.036,0.579051383,0.401,116,31,0,0,0,0,21,0,621,769,0,0,0,0,0,0,0,0,0,,1.284401052,77.06406311,1849.537515,1109.415782,29.83125024,0,0,59.43620639,558.70034,309.7087973,1300.776949,0,30.20757003,70.32984941,0.908291431,4,0,0,0,0,0,0,0,0,0,0,0,0,0,0,0,0,0,0,0,0,0,0,0,0,0,0,0,0,0,0,0,0,1.206816326,00:01:09,0,0,0,E 000°00.000,N 00°00.000,0,0,0,11,93,0,1.831847488,0,24,0.922412852,19.99921228,0,0,0
,,,,,,PaCO2 @ rest (mmHg),0,,00:01:16,19.01140684,0.555791339,10.56637526,352.6553607,314.9120034,93.92363725,20.19205231,29.96232708,33.55342174,5.687989688,0.892973817,16.89908257,3.633027523,82,4.30067513,0,0,0,0,,15.89,4.53,20.8,0.07,1.652,1.504,3.156,0.523447402,0.45,114,32,0,0,0,0,21,0,622,769,0,0,0,0,0,0,0,0,0,,1.722936067,103.376164,2481.027936,1488.205309,40.01657962,0,0,93.40652351,878.021321,384.8422387,1616.337403,0,35.38941695,65.14789209,0.892973817,3,0,0,0,0,0,0,0,0,0,0,0,0,0,0,0,0,0,0,0,0,0,0,0,0,0,0,0,0,0,0,0,0,1.625139911,00:01:12,0,0,0,E 000°00.000,N 00°00.000,0,0,0,15,92,0,1.907030916,0,25,1.02392603,20.0184608,0,0,0
,,,,,,PaO2 @ peak (mmHg),0,,00:01:18,19.25545571,0.739355451,14.23662614,507.8933547,451.1244127,122.987955,28.45243734,28.03073914,31.55809292,8.191828302,0.888226649,16.63448276,3.848275862,82,6.193821399,0,0,0,0,,15.75,4.62,20.8,0.06,1.556,1.56,3.116,0.499358151,0.472,113,33,0,0,0,0,21,0,622,769,0,0,0,0,0,0,0,0,0,,2.478385673,148.7031404,3568.875369,2140.73336,57.56250594,0,0,140.4903092,1320.608907,539.8669344,2267.441124,0,37.00350308,63.53377157,0.888226649,2,0,0,0,0,0,0,0,0,0,0,0,0,0,0,0,0,0,0,0,0,0,0,0,0,0,0,0,0,0,0,0,0,2.340522372,00:01:14,0,0,0,E 000°00.000,N 00°00.000,0,0,0,21,89,0,1.977052945,0,26,1.15340708,20.0184608,0,0,0
,,,,,,PaCO2 @ peak (mmHg),0,,00:01:20,22.40477969,0.790345482,17.70751639,608.268795,545.7852256,132.4721007,29.67619809,29.11133456,32.44411092,9.810787017,0.897276385,16.76129032,3.75483871,82,7.417912135,0,0,0,0,,15.89,4.53,20.78,0.07,1.25,1.428,2.678,0.466766243,0.507,114,32,0,0,0,0,21,0,622,769,0,0,0,0,0,0,0,0,0,,2.975000638,178.5000383,4284.000919,2569.690094,69.09678901,0,0,154.6334759,1453.554674,679.3966432,2853.465901,0,33.92984039,66.60749975,0.897276385,2,0,0,0,0,0,0,0,0,0,0,0,0,0,0,0,0,0,0,0,0,0,0,0,0,0,0,0,0,0,0,0,0,2.803082005,00:01:16,0,0,0,E 000°00.000,N 00°00.000,0,0,0,26,86,0,2.067942716,0,27,1.248157653,19.99921228,0,0,0
,,,,,,User 1:,0,,00:01:24,21.15655853,0.735276248,15.55591498,535.4980303,481.7720972,123.089935,27.73857691,29.04943455,32.28894963,8.637065005,0.899671091,16.740638,3.772538141,82,6.530463784,0,0,0,0,,16.39,4.12,20.77,0.07,1.376,1.46,2.836,0.485190409,0.659,118,29,0,0,0,0,21,0,622,769,0,0,0,0,0,0,0,0,0,,2.620670137,157.2402082,3773.764997,2263.633159,60.86717737,0,0,132.9603694,1249.827472,605.7657455,2544.216131,0,33.11884744,67.41850998,0.899671091,4,0,0,0,0,0,0,0,0,0,0,0,0,0,0,0,0,0,0,0,0,0,0,0,0,0,0,0,0,0,0,0,0,2.467732859,00:01:20,0,0,0,E 000°00.000,N 00°00.000,0,0,0,22,88,0,2.254465076,0,28,1.191895561,19.98958802,0,0,0
,,,,,,User 2:,0,,00:01:27,23.58490566,0.565989345,13.34880531,432.7745347,390.5315018,96.06521856,20.19205231,30.84471067,34.18112302,6.980234431,0.902390207,16.97297297,3.567567568,82,5.277738228,0,0,0,0,,16.72,3.84,20.77,0.07,1.406,1.138,2.544,0.552672956,0.544,120,27,0,0,0,0,21,0,622,769,0,0,0,0,0,0,0,0,0,,2.119407983,127.164479,3051.947496,1830.662364,49.22495961,0,0,104.5427625,982.7019672,496.5823793,2085.645993,0,32.1991767,68.3382003,0.902390207,3,0,0,0,0,0,0,0,0,0,0,0,0,0,0,0,0,0,0,0,0,0,0,0,0,0,0,0,0,0,0,0,0,1.994352694,00:01:23,0,0,0,E 000°00.000,N 00°00.000,0,0,0,18,90,0,2.372967029,0,29,1.125442399,19.98958802,0,0,0
,,,,,,User 3:,0,,00:01:30,22.55639098,0.520098317,11.73154099,371.1936776,337.5506066,88.72265408,18.25443113,31.60490518,34.7549101,5.986994801,0.909365183,17.05882353,3.509803922,82,4.526752166,0,0,0,0,,16.77,3.83,20.77,0.07,1.648,1.012,2.66,0.619548872,0.556,121,27,0,0,0,0,21,0,623,769,0,0,0,0,0,0,0,0,0,,1.821033396,109.2620037,2622.28809,1572.937975,42.29496919,0,0,83.259948,782.6435112,441.3660634,1853.737466,0,29.84582489,70.69160226,0.909365183,3,0,0,0,0,0,0,0,0,0,0,0,0,0,0,0,0,0,0,0,0,0,0,0,0,0,0,0,0,0,0,0,0,1.710569943,00:01:26,0,0,0,E 000°00.000,N 00°00.000,0,0,0,15,91,0,2.471478063,0,30,1.069355062,19.98958802,0,0,0
,,,,,,,,,00:01:33,23.25581395,0.296761981,6.901441416,173.7391007,162.6014005,52.8256722,8.566325222,39.72301796,42.44392359,2.802243559,0.935894107,17.80068729,2.886597938,81,2.144927169,0,0,0,0,,17.56,3.12,20.77,0.07,1.706,0.874,2.58,0.66124031,0.525,126,22,0,0,0,0,21,0,623,769,0,0,0,0,0,0,0,0,0,,0.858045472,51.48272832,1235.58548,741.1463788,19.92879806,0,0,27.56399391,259.1015427,234.0777726,983.1266451,0,20.96994073,79.56767551,0.935894107,3,0,0,0,0,0,0,0,0,0,0,0,0,0,0,0,0,0,0,0,0,0,0,0,0,0,0,0,0,0,0,0,0,0.800641017,00:01:29,0,0,0,E 000°00.000,N 00°00.000,0,0,0,7,94,0,2.538455035,0,31,0.838939806,19.98958802,0,0,0
,,,,,,,,,00:01:36,18.98734177,0.235573944,4.47292298,111.1973685,106.2782356,42.01578561,6.832664165,40.22507942,42.08691418,1.793505944,0.955762146,17.83549784,2.9004329,81,1.372807019,0,0,0,0,,17.52,3.1,20.78,0.06,2.202,0.958,3.16,0.696835443,0.474,126,22,0,0,0,0,21,0,623,769,0,0,0,0,0,0,0,0,0,,0.551903428,33.11420567,794.740936,476.7127621,12.81840219,0,0,12.1741798,114.4372901,162.9946226,684.5774147,0,14.39931994,86.13843628,0.955762146,3,0,0,0,0,0,0,0,0,0,0,0,0,0,0,0,0,0,0,0,0,0,0,0,0,0,0,0,0,0,0,0,0,0.51243027,00:01:32,0,0,0,E 000°00.000,N 00°00.000,0,0,0,4,96,0,2.573703757,0,32,0.65059142,19.99921228,0,0,0
,,,,,,,,,00:01:43,15.84786054,0.758731662,12.02427357,324.8404524,318.4332486,133.1859612,24.47521492,37.01593655,37.76073519,5.239362135,0.980275844,17.55376344,3.225806452,80,4.060505655,0,0,0,0,,17.2,3.43,20.77,0.06,2.45,1.336,3.786,0.647120972,0.819,124,24,0,0,0,0,21,0,623,769,0,0,0,0,0,0,0,0,0,,1.622123679,97.32742074,2335.858098,1401.127481,37.67513061,0,0,15.85715309,149.057239,523.6585883,2199.366071,0,6.381262593,94.15666444,0.980275844,7,0,0,0,0,0,0,0,0,0,0,0,0,0,0,0,0,0,0,0,0,0,0,0,0,0,0,0,0,0,0,0,0,1.49696061,00:01:39,0,0,0,E 000°00.000,N 00°00.000,0,0,0,13,91,0,2.700522005,0,33,1.080058849,19.98958802,0,0,0
,,,,,,,,,00:01:46,15.73976915,0.779127675,12.26328974,329.5916372,325.5008138,136.8572434,25.18907535,37.207527,37.6751431,5.315994149,0.987588206,17.56544503,3.232984293,80,4.119895465,0,0,0,0,,17.15,3.51,20.77,0.06,2.45,1.362,3.812,0.64270724,0.803,123,25,0,0,0,0,21,0,621,769,0,0,0,0,0,0,0,0,0,,1.648830487,98.92982922,2374.315901,1424.195785,38.29541776,0,0,10.1243942,95.16930545,545.6952103,2291.919883,0,4.008283203,96.52969438,0.987588206,3,0,0,0,0,0,0,0,0,0,0,0,0,0,0,0,0,0,0,0,0,0,0,0,0,0,0,0,0,0,0,0,0,1.518855471,00:01:42,0,0,0,E 000°00.000,N 00°00.000,0,0,0,14,90,0,2.782295859,0,34,1.088606989,19.98958802,0,0,0
,,,,,,,,,00:01:50,17.07455891,0.667969407,11.40528299,284.3677194,288.5145065,118.5008322,20.59997256,40.10751647,39.53105557,4.58657612,1.014582482,17.74045802,3.083969466,80,3.554596493,0,0,0,0,,17.98,2.73,20.73,0.06,2.334,1.18,3.514,0.664200341,0.735,129,19,0,0,0,0,21,0,620,769,0,0,0,0,0,0,0,0,0,,1.432086792,85.9252075,2062.20498,1236.980993,33.26137065,0,0,0,0,493.6435706,2073.302997,0,0,100,1.014582482,4,0,0,0,0,0,0,0,0,0,0,0,0,0,0,0,0,0,0,0,0,0,0,0,0,0,0,0,0,0,0,0,0,1.31045032,00:01:46,0,0,0,E 000°00.000,N 00°00.000,0,0,0,12,91,0,2.884993102,0,35,1.057106066,19.95109098,0,0,0
,,,,,,,,,00:01:58,11.19820829,0.810741494,9.078852118,248.9139422,240.9530268,141.7522864,26.20887598,36.47385935,37.67892954,4.014741003,0.968017399,17.48427673,3.232704403,80,3.111424277,0,0,0,0,,17.09,3.5,20.74,0.06,4.01,1.348,5.358,0.748413587,0.799,123,25,0,0,0,0,21,0,619,769,0,0,0,0,0,0,0,0,0,,1.23920251,74.35215057,1784.451614,1070.375036,28.78147764,0,0,19.70230023,185.2016222,383.0589333,1608.84752,0,10.37862953,90.15921234,0.968017399,8,0,0,0,0,0,0,0,0,0,0,0,0,0,0,0,0,0,0,0,0,0,0,0,0,0,0,0,0,0,0,0,0,1.147068858,00:01:54,0,0,0,E 000°00.000,N 00°00.000,0,0,0,10,93,0,3.063079055,0,36,0.958030942,19.96071524,0,0,0
,,,,,,,,,00:02:01,11.45912911,0.960652186,11.00823742,318.6333623,303.3773646,166.3294814,32.22569964,34.54828879,36.28562545,5.13924778,0.952120526,17.31422505,3.354564756,80,3.982917029,0,0,0,0,,16.86,3.71,20.74,0.06,3.736,1.5,5.236,0.713521772,0.912,121,26,0,0,0,0,21,0,618,769,0,0,0,0,0,0,0,0,0,,1.580030543,94.80183258,2275.243982,1364.769064,36.69748358,0,0,37.75643148,354.910456,460.1352883,1932.568211,0,15.59878671,84.93894395,0.952120526,3,0,0,0,0,0,0,0,0,0,0,0,0,0,0,0,0,0,0,0,0,0,0,0,0,0,0,0,0,0,0,0,0,1.468356508,00:01:57,0,0,0,E 000°00.000,N 00°00.000,0,0,0,13,91,0,3.133559882,0,37,1.041717788,19.96071524,0,0,0
,,,,,,,,,00:02:04,13.29787234,0.588424959,7.824799982,242.1489055,217.5695792,100.5523413,20.09007225,32.31400103,35.96458664,3.905627509,0.898494993,17.08838821,3.414211438,80,3.026861319,0,0,0,0,,16.68,3.8,20.71,0.09,3.264,1.248,4.512,0.723404255,0.518,120,27,0,0,0,0,21,0,618,769,0,0,0,0,0,0,0,0,0,,1.184698581,71.08191488,1705.965957,1023.296658,27.51557995,0,0,60.82861768,571.7890062,272.2247478,1143.343941,0,33.51702323,67.0203257,0.898494993,3,0,0,0,0,0,0,0,0,0,0,0,0,0,0,0,0,0,0,0,0,0,0,0,0,0,0,0,0,0,0,0,0,1.115893574,00:02:00,0,0,0,E 000°00.000,N 00°00.000,0,0,0,10,94,0,3.20267811,0,38,0.893473245,19.93184246,0,0,0
,,,,,,,,,00:02:07,13.6239782,0.67204861,9.155975608,285.1843162,255.7487619,114.6255899,23.04749405,32.10546684,35.80066445,4.599747036,0.896784105,17.05614568,3.429438543,80,3.564803953,0,0,0,0,,16.53,3.88,20.7,0.09,3.056,1.348,4.404,0.693914623,0.626,119,28,0,0,0,0,21,0,618,769,0,0,0,0,0,0,0,0,0,,1.394643118,83.67858709,2008.28609,1204.638601,32.39171113,0,0,72.84668462,684.7588354,317.6948835,1334.318511,0,34.0966777,66.44065888,0.896784105,3,0,0,0,0,0,0,0,0,0,0,0,0,0,0,0,0,0,0,0,0,0,0,0,0,0,0,0,0,0,0,0,0,1.314213439,00:02:03,0,0,0,E 000°00.000,N 00°00.000,0,0,0,12,93,0,3.267161652,0,39,0.961704627,19.9222182,0,0,0
,,,,,,,,,00:02:10,13.19261214,0.744454454,9.821298862,304.9272221,272.8141322,127.3730976,25.39303548,32.20866538,35.99996372,4.918181001,0.894686051,17.10958904,3.410958904,80,3.811590276,0,0,0,0,,15.8,4.59,20.74,0.09,3.026,1.522,4.548,0.665347405,0.744,114,33,0,0,0,0,21,0,618,769,0,0,0,0,0,0,0,0,0,,1.490400908,89.42405449,2146.177308,1287.350464,34.61576303,0,0,79.47292109,747.0454583,335.8723143,1410.66372,0,34.80818922,65.7291322,0.894686051,3,0,0,0,0,0,0,0,0,0,0,0,0,0,0,0,0,0,0,0,0,0,0,0,0,0,0,0,0,0,0,0,0,1.405194572,00:02:06,0,0,0,E 000°00.000,N 00°00.000,0,0,0,13,92,0,3.339287753,0,40,0.992168927,19.96071524,0,0,0
,,,,,,,,,00:02:13,21.12676056,0.662870404,14.00430431,415.5043592,376.9176553,114.4216297,21.92571336,33.70434991,37.15481117,6.701683213,0.907132854,17.26153846,3.307692308,80,5.19380449,0,0,0,0,,16.09,4.39,20.74,0.09,1.39,1.45,2.84,0.48943662,0.753,116,31,0,0,0,0,21,0,618,769,0,0,0,0,0,0,0,0,0,,2.037269122,122.2361473,2933.667536,1759.714003,47.31721832,0,0,95.49434765,897.6468679,488.5206008,2051.786523,0,30.59811165,69.93929947,0.907132854,3,0,0,0,0,0,0,0,0,0,0,0,0,0,0,0,0,0,0,0,0,0,0,0,0,0,0,0,0,0,0,0,0,1.914766632,00:02:09,0,0,0,E 000°00.000,N 00°00.000,0,0,0,17,89,0,3.427479504,0,41,1.146261539,19.96071524,0,0,0
,,,,,,,,,00:02:16,20.81887578,0.551712136,11.48602643,318.466633,295.034379,96.4731388,17.43859063,36.06665579,38.93114582,5.136558596,0.926421636,17.48613678,3.160813309,81,3.931686827,0,0,0,0,,16.27,4.3,20.75,0.09,1.528,1.354,2.882,0.53018737,0.684,117,31,0,0,0,0,21,0,618,769,0,0,0,0,0,0,0,0,0,,1.569079866,94.14479197,2259.475007,1355.310294,36.44314528,0,0,57.99072149,545.112782,411.0733359,1726.508011,0,24.12563893,76.41191008,0.926421636,3,0,0,0,0,0,0,0,0,0,0,0,0,0,0,0,0,0,0,0,0,0,0,0,0,0,0,0,0,0,0,0,0,1.46758817,00:02:12,0,0,0,E 000°00.000,N 00°00.000,0,0,0,13,91,0,3.517638228,0,42,1.060169811,19.9703395,0,0,0
,,,,,,,,,00:02:19,20.6043956,0.494603301,10.19100209,272.207379,255.0207473,87.19295315,15.0930492,37.43837558,39.96146274,4.390441596,0.936861992,17.62886598,3.051546392,81,3.360584926,0,0,0,0,,16.33,4.27,20.78,0.06,1.682,1.23,2.912,0.57760989,0.606,117,30,0,0,0,0,21,0,618,769,0,0,0,0,0,0,0,0,0,,1.344676764,80.68060586,1936.334541,1161.479604,31.23120227,0,0,42.53413574,399.8208759,368.3152015,1546.923846,0,20.64833672,79.88928638,0.936861992,3,0,0,0,0,0,0,0,0,0,0,0,0,0,0,0,0,0,0,0,0,0,0,0,0,0,0,0,0,0,0,0,0,1.254411885,00:02:15,0,0,0,E 000°00.000,N 00°00.000,0,0,0,11,92,0,3.590482144,0,43,1.008216891,19.99921228,0,0,0
,,,,,,,,,00:02:22,20.4638472,0.456870678,9.349331756,251.2968063,234.4655871,80.46226905,13.97126852,37.20433974,39.87507024,4.053174295,0.93302255,17.61160714,3.058035714,82,3.064595198,0,0,0,0,,16.31,4.32,20.78,0.06,1.74,1.192,2.932,0.593451569,0.559,117,31,0,0,0,0,21,0,619,769,0,0,0,0,0,0,0,0,0,,1.240187156,74.41122935,1785.869504,1071.225535,28.80434684,0,0,41.65446283,391.5519506,334.2662654,1403.918315,0,21.92500346,78.61259244,0.93302255,3,0,0,0,0,0,0,0,0,0,0,0,0,0,0,0,0,0,0,0,0,0,0,0,0,0,0,0,0,0,0,0,0,1.158049798,00:02:18,0,0,0,E 000°00.000,N 00°00.000,0,0,0,10,93,0,3.655103742,0,44,0.970780571,19.99921228,0,0,0
,,,,,,,,,00:02:24,21.45922747,0.462989482,9.935396614,268.370506,253.1284241,81.48206967,14.37918876,37.02119417,39.25041864,4.328556549,0.943205078,17.59911894,3.105726872,83,3.233379591,0,0,0,0,,16.36,4.25,20.79,0.06,1.686,1.11,2.796,0.603004292,0.543,118,30,0,0,0,0,21,0,620,769,0,0,0,0,0,0,0,0,0,,1.327828744,79.66972463,1912.073391,1146.926937,30.83989341,0,0,37.72181552,354.5850659,373.2783168,1567.76893,0,18.54453221,81.9931357,0.943205078,2,0,0,0,0,0,0,0,0,0,0,0,0,0,0,0,0,0,0,0,0,0,0,0,0,0,0,0,0,0,0,0,0,1.236730443,00:02:20,0,0,0,E 000°00.000,N 00°00.000,0,0,0,11,92,0,3.697904007,0,45,0.997185209,20.00883654,0,0,0
,,,,,,,,,00:02:27,21.29169624,0.483385495,10.29209712,277.4719969,261.8322481,85.05137184,14.99106914,37.09238134,39.30798132,4.475354788,0.943634857,17.59493671,3.101265823,83,3.343036107,0,0,0,0,,16.29,4.28,20.78,0.06,1.716,1.102,2.818,0.608942512,0.524,117,30,0,0,0,0,21,0,621,769,0,0,0,0,0,0,0,0,0,,1.373008111,82.38048666,1977.13168,1185.951121,31.88922064,0,0,38.70598858,363.8362926,386.6490119,1623.92585,0,18.40222866,82.13544229,0.943634857,3,0,0,0,0,0,0,0,0,0,0,0,0,0,0,0,0,0,0,0,0,0,0,0,0,0,0,0,0,0,0,0,0,1.278672797,00:02:23,0,0,0,E 000°00.000,N 00°00.000,0,0,0,11,92,0,3.765424928,0,46,1.012503876,19.99921228,0,0,0
,,,,,,,,,00:02:30,21.83406114,0.503781507,10.99959622,294.0650896,277.5913689,88.72265408,15.50096945,37.40531132,39.62513772,4.742985316,0.943979339,17.61133603,3.076923077,84,3.500774876,0,0,0,0,,16.27,4.3,20.77,0.06,1.624,1.124,2.748,0.590975255,0.551,117,31,0,0,0,0,21,0,621,769,0,0,0,0,0,0,0,0,0,,1.455240627,87.31443763,2095.546503,1256.980377,33.79913715,0,0,40.76994902,383.2375208,410.3752804,1723.576178,0,18.28818975,82.24948362,0.943979339,3,0,0,0,0,0,0,0,0,0,0,0,0,0,0,0,0,0,0,0,0,0,0,0,0,0,0,0,0,0,0,0,0,1.355138662,00:02:26,0,0,0,E 000°00.000,N 00°00.000,0,0,0,12,91,0,3.836131147,0,47,1.041376743,19.98958802,0,0,0
,,,,,,,,,00:02:33,21.44388849,0.469108286,10.05950577,265.3328053,251.0528422,82.80781047,14.2772087,37.91278565,40.06927659,4.279561376,0.946180937,17.65217391,3.043478261,84,3.158723873,0,0,0,0,,16.34,4.24,20.77,0.06,1.676,1.122,2.798,0.598999285,0.564,117,30,0,0,0,0,21,0,621,769,0,0,0,0,0,0,0,0,0,,1.313775703,78.82654217,1891.837012,1134.788466,30.51350019,0,0,35.34077405,332.2032761,373.7633175,1569.805933,0,17.55982539,82.9778635,0.946180937,3,0,0,0,0,0,0,0,0,0,0,0,0,0,0,0,0,0,0,0,0,0,0,0,0,0,0,0,0,0,0,0,0,1.222731822,00:02:29,0,0,0,E 000°00.000,N 00°00.000,0,0,0,11,92,0,3.905356555,0,48,1.002576644,19.98958802,0,0,0
,,,,,,,,,00:02:36,20.83333333,0.450751875,9.390664057,240.4000976,229.880573,79.95236873,13.46136821,39.06264661,40.85018554,3.877420929,0.956241596,17.73755656,2.986425339,84,2.861905924,0,0,0,0,,16.33,4.24,20.77,0.06,1.78,1.1,2.88,0.618055556,0.536,117,30,0,0,0,0,21,0,622,769,0,0,0,0,0,0,0,0,0,,1.193315038,71.59890227,1718.373654,1030.739218,27.7157041,0,0,26.03438821,244.7232492,353.0693153,1482.891124,0,14.24156199,86.29619759,0.956241596,3,0,0,0,0,0,0,0,0,0,0,0,0,0,0,0,0,0,0,0,0,0,0,0,0,0,0,0,0,0,0,0,0,1.107834551,00:02:32,0,0,0,E 000°00.000,N 00°00.000,0,0,0,10,93,0,3.968033824,0,49,0.972696304,19.98958802,0,0,0
,,,,,,,,,00:02:39,20.6185567,0.436474666,8.999477651,225.9410105,218.111597,77.6068273,12.95146789,39.8310941,41.2608856,3.644209846,0.965347533,17.78037383,2.96728972,84,2.689773934,0,0,0,0,,16.26,4.28,20.76,0.07,1.812,1.098,2.91,0.622680412,0.52,117,30,0,0,0,0,21,0,622,769,0,0,0,0,0,0,0,0,0,,1.124087006,67.44522036,1618.685289,970.9427312,26.10782724,0,0,19.37682208,182.1421275,344.1068636,1445.248827,0,11.25247315,89.28535011,0.965347533,3,0,0,0,0,0,0,0,0,0,0,0,0,0,0,0,0,0,0,0,0,0,0,0,0,0,0,0,0,0,0,0,0,1.041202813,00:02:35,0,0,0,E 000°00.000,N 00°00.000,0,0,0,9,93,0,4.025968875,0,50,0.954217303,19.97996376,0,0,0
,,,,,,,,,00:02:42,20.42205582,0.396702442,8.101479411,204.0283741,191.0510711,70.57020302,11.42176696,39.70761149,42.40478404,3.290780227,0.936394617,17.78920308,2.879177378,84,2.428909215,0,0,0,0,,16.31,4.25,20.76,0.06,1.832,1.106,2.938,0.623553438,0.486,117,30,0,0,0,0,21,0,622,769,0,0,0,0,0,0,0,0,0,,1.007761457,60.46568744,1451.176499,870.4652367,23.40607256,0,0,32.11671963,301.8971645,275.495511,1157.081146,0,20.8036145,79.73400528,0.936394617,3,0,0,0,0,0,0,0,0,0,0,0,0,0,0,0,0,0,0,0,0,0,0,0,0,0,0,0,0,0,0,0,0,0.940222922,00:02:38,0,0,0,E 000°00.000,N 00°00.000,0,0,0,8,93,0,4.079265086,0,51,0.908564333,19.97996376,0,0,0
,,,,,,,,,00:02:44,19.43005181,0.424237059,8.24294803,215.0596652,201.3921623,75.05732575,12.64552771,38.32865649,40.92983528,3.468704277,0.936447856,17.69230769,2.980769231,85,2.530113708,0,0,0,0,,16.21,4.32,20.77,0.06,1.918,1.17,3.088,0.62111399,0.496,117,31,0,0,0,0,21,0,622,769,0,0,0,0,0,0,0,0,0,,1.062262699,63.73576192,1529.658286,917.5412938,24.67190784,0,0,33.82485336,317.9536216,290.4591466,1219.928416,0,20.78592483,79.75169533,0.936447856,2,0,0,0,0,0,0,0,0,0,0,0,0,0,0,0,0,0,0,0,0,0,0,0,0,0,0,0,0,0,0,0,0,0.991058365,00:02:40,0,0,0,E 000°00.000,N 00°00.000,0,0,0,9,93,0,4.113765489,0,52,0.916082562,19.98958802,0,0,0
,,,,,,,,,00:02:47,20.51983584,0.472167688,9.688803443,269.0752374,247.2002446,82.70583041,14.68512895,36.00778555,39.19414991,4.339923183,0.918703062,17.5161987,3.110151188,85,3.165591028,0,0,0,0,,16.07,4.42,20.78,0.06,1.67,1.254,2.924,0.571135431,0.501,116,31,0,0,0,0,21,0,622,769,0,0,0,0,0,0,0,0,0,,1.323160175,79.3896105,1905.350652,1142.894409,30.73146213,0,0,54.13655108,508.8835802,334.9305279,1406.708217,0,26.70813268,73.82936131,0.918703062,3,0,0,0,0,0,0,0,0,0,0,0,0,0,0,0,0,0,0,0,0,0,0,0,0,0,0,0,0,0,0,0,0,1.239978052,00:02:43,0,0,0,E 000°00.000,N 00°00.000,0,0,0,11,92,0,4.173401061,0,53,0.986270145,19.99921228,0,0,0
,,,,,,,,,00:02:50,21.32196162,0.481345893,10.26323867,288.7620707,267.6798851,84.03157122,15.29700932,35.54219791,38.34146395,4.657452753,0.926991154,17.45762712,3.177966102,85,3.397200832,0,0,0,0,,16.06,4.42,20.77,0.06,1.512,1.302,2.814,0.537313433,0.504,115,31,0,0,0,0,21,0,622,769,0,0,0,0,0,0,0,0,0,,1.422929407,85.37576443,2049.018346,1229.0712,33.04868301,0,0,52.17472983,490.4424604,373.7120112,1569.590447,0,23.93548409,76.60206897,0.926991154,3,0,0,0,0,0,0,0,0,0,0,0,0,0,0,0,0,0,0,0,0,0,0,0,0,0,0,0,0,0,0,0,0,1.330700787,00:02:46,0,0,0,E 000°00.000,N 00°00.000,0,0,0,12,92,0,4.2420533,0,54,1.011284428,19.98958802,0,0,0
,,,,,,,,,00:02:52,21.77068215,0.473187488,10.30161441,294.3459609,269.6859957,82.39989023,15.0930492,34.99832094,38.19855154,4.747515499,0.916221153,17.4137931,3.189655172,85,3.462893658,0,0,0,0,,16.05,4.42,20.77,0.06,1.43,1.326,2.756,0.518867925,0.482,115,31,0,0,0,0,21,0,622,769,0,0,0,0,0,0,0,0,0,,1.446523655,86.7914193,2082.994063,1249.450995,33.59667844,0,0,61.02876066,573.6703502,362.0284075,1520.519311,0,27.5406618,72.99681446,0.916221153,2,0,0,0,0,0,0,0,0,0,0,0,0,0,0,0,0,0,0,0,0,0,0,0,0,0,0,0,0,0,0,0,0,1.356433,00:02:48,0,0,0,E 000°00.000,N 00°00.000,0,0,0,12,92,0,4.289877518,0,55,1.01290529,19.98958802,0,0,0
,,,,,,,,,00:02:56,19.84126984,0.487464697,9.671918594,279.8569578,254.9859163,84.74543166,15.70492957,34.56022201,37.93118748,4.513821901,0.911129451,17.38493724,3.221757322,85,3.292434798,0,0,0,0,,16.01,4.44,20.78,0.07,1.354,1.67,3.024,0.447751323,0.485,115,32,0,0,0,0,21,0,622,769,0,0,0,0,0,0,0,0,0,,1.373556736,82.41340416,1977.9217,1186.425002,31.9019629,0,0,61.55096774,578.5790967,335.7077956,1409.972742,0,29.25187063,71.28556917,0.911129451,4,0,0,0,0,0,0,0,0,0,0,0,0,0,0,0,0,0,0,0,0,0,0,0,0,0,0,0,0,0,0,0,0,1.2896634,00:02:52,0,0,0,E 000°00.000,N 00°00.000,0,0,0,12,92,0,4.383880198,0,56,0.985512633,19.99921228,0,0,0
,,,,,,,,,00:02:59,21.77068215,0.45993008,10.01299159,286.0365942,261.5619541,80.0543488,14.68512895,35.00598102,38.28152922,4.613493455,0.914435284,17.40576497,3.192904656,86,3.32600691,0,0,0,0,,15.99,4.43,20.76,0.07,1.15,1.606,2.756,0.417271408,0.485,115,31,0,0,0,0,21,0,623,769,0,0,0,0,0,0,0,0,0,,1.4050565,84.30339,2023.28136,1213.633276,32.63357032,0,0,60.57005839,569.3585489,348.7612404,1464.79721,0,28.14035458,72.3971089,0.914435284,3,0,0,0,0,0,0,0,0,0,0,0,0,0,0,0,0,0,0,0,0,0,0,0,0,0,0,0,0,0,0,0,0,1.318140987,00:02:55,0,0,0,E 000°00.000,N 00°00.000,0,0,0,12,92,0,4.453345529,0,57,1.000563851,19.97996376,0,0,0
,,,,,,,,,00:03:01,21.12676056,0.50786071,10.72945161,331.3880766,296.4801994,87.09097309,17.13265044,32.37730133,36.18943738,5.344968977,0.894661638,17.14859438,3.373493976,86,3.853349727,0,0,0,0,,15.91,4.45,20.76,0.07,1.294,1.546,2.84,0.455633803,0.443,114,32,0,0,0,0,21,0,623,769,0,0,0,0,0,0,0,0,0,,1.619724324,97.18345945,2332.403027,1399.055011,37.61940366,0,0,86.38941128,812.060466,364.9702519,1532.875058,0,34.81647283,65.72084842,0.894661638,2,0,0,0,0,0,0,0,0,0,0,0,0,0,0,0,0,0,0,0,0,0,0,0,0,0,0,0,0,0,0,0,0,1.527133993,00:02:57,0,0,0,E 000°00.000,N 00°00.000,0,0,0,14,92,0,4.503758542,0,58,1.030577525,19.97996376,0,0,0
,,,,,,,,,00:03:04,21.05263158,0.600662566,12.64552771,424.2847065,376.902255,101.1642217,21.8237333,29.80434485,33.55121266,6.843301717,0.888323923,16.84210526,3.63327674,86,4.933543099,0,0,0,0,,15.66,4.64,20.76,0.07,1.262,1.588,2.85,0.442807018,0.481,113,33,0,0,0,0,21,0,624,769,0,0,0,0,0,0,0,0,0,,2.070448565,124.2269139,2981.445933,1788.373118,48.08783763,0,0,117.2608714,1102.252191,451.2410276,1895.212316,0,36.97039008,63.56688528,0.888323923,3,0,0,0,0,0,0,0,0,0,0,0,0,0,0,0,0,0,0,0,0,0,0,0,0,0,0,0,0,0,0,0,0,1.955229062,00:03:00,0,0,0,E 000°00.000,N 00°00.000,0,0,0,18,90,0,4.596012865,0,59,1.101936958,19.97996376,0,0,0
,,,,,,,,,00:03:06,21.20141343,0.687345619,14.57269864,522.7550427,463.4893534,113.9117294,26.61679622,27.87672513,31.44128021,8.431532946,0.886628183,16.5727003,3.872403561,87,6.008678651,0,0,0,0,,15.37,4.86,20.76,0.07,1.21,1.62,2.83,0.427561837,0.524,110,35,0,0,0,0,21,0,624,769,0,0,0,0,0,0,0,0,0,,2.549873146,152.9923888,3671.817331,2202.481466,59.22286018,0,0,146.6690679,1378.689238,550.6798597,2312.855411,0,37.54787109,62.98939196,0.886628183,2,0,0,0,0,0,0,0,0,0,0,0,0,0,0,0,0,0,0,0,0,0,0,0,0,0,0,0,0,0,0,0,0,2.409009413,00:03:02,0,0,0,E 000°00.000,N 00°00.000,0,0,0,22,89,0,4.673018226,0,60,1.163539984,19.97996376,0,0,0
,,,,,,,,,00:03:09,22.69288956,0.821959301,18.65263164,738.0026988,643.3494381,132.880021,34.46926101,25.2744762,28.99300215,11.90326933,0.871744018,16.1662531,4.193548387,88,8.386394304,0,0,0,0,,14.99,5.19,20.77,0.07,1.124,1.52,2.644,0.425113464,0.64,108,37,0,0,0,0,21,0,624,769,0,0,0,0,0,0,0,0,0,,3.586211459,215.1726875,5164.144501,3097.630281,83.29265324,0,0,234.2433459,2201.887451,711.9039261,2989.99649,0,42.63799069,57.89916392,0.871744018,3,0,0,0,0,0,0,0,0,0,0,0,0,0,0,0,0,0,0,0,0,0,0,0,0,0,0,0,0,0,0,0,0,3.400934096,00:03:05,0,0,0,E 000°00.000,N 00°00.000,0,0,0,31,86,0,4.826420342,0,61,1.270740114,19.98958802,0,0,0
,,,,,,,,,00:03:11,23.67797948,0.971869992,23.01191774,956.8203346,836.7563764,154.9077144,42.83162611,24.05040623,27.50133538,15.43258604,0.874517761,15.93913956,4.407135362,89,10.75079028,0,0,0,0,,14.79,5.39,20.78,0.06,1.06,1.474,2.534,0.418310971,0.702,106,38,0,0,0,0,21,0,625,769,0,0,0,0,0,0,0,0,0,,4.652805323,279.1683194,6700.039665,4018.912667,108.0651559,0,0,297.1289692,2793.012311,938.8138771,3943.018284,0,41.68650412,58.85067076,0.874517761,2,0,0,0,0,0,0,0,0,0,0,0,0,0,0,0,0,0,0,0,0,0,0,0,0,0,0,0,0,0,0,0,0,4.409310298,00:03:07,0,0,0,E 000°00.000,N 00°00.000,0,0,0,41,82,0,4.963737288,0,62,1.361952813,19.99921228,0,0,0
,,,,,,,,,00:03:13,23.98081535,1.479730702,35.48514873,1296.740872,1201.419148,243.8343286,60.78011705,27.36487258,29.53602728,20.91517535,0.926491309,16.47829083,4.107512061,91,14.24989969,0,0,0,0,,14.98,5.36,20.78,0.06,0.968,1.534,2.502,0.386890488,1.332,108,38,0,0,0,0,21,0,624,769,0,0,0,0,0,0,0,0,0,,6.389132723,383.3479634,9200.351121,5518.68489,148.39276,0,0,235.9045674,2217.502933,1674.358245,7032.304629,0,24.10237288,76.43517663,0.926491309,2,0,0,0,0,0,0,0,0,0,0,0,0,0,0,0,0,0,0,0,0,0,0,0,0,0,0,0,0,0,0,0,0,5.975764386,00:03:09,0,0,0,E 000°00.000,N 00°00.000,0,0,0,55,73,0,5.147769589,0,63,1.55004663,19.99921228,0,0,0
,,,,,,,,,00:03:15,26.59574468,1.424661468,37.88993267,1357.416985,1271.003028,235.9818638,58.12863543,27.9132596,29.8110483,21.89382233,0.936339417,16.56406586,4.080171797,93,14.59588155,0,0,0,0,,15.23,5.26,20.79,0.07,0.862,1.394,2.256,0.382092199,1.327,109,37,0,0,0,0,21,0,624,769,0,0,0,0,0,0,0,0,0,,6.704624365,402.2774619,9654.659085,5791.194327,155.7203078,0,0,213.8605172,2010.288861,1832.446558,7696.275543,0,20.82195595,79.71566345,0.936339417,2,0,0,0,0,0,0,0,0,0,0,0,0,0,0,0,0,0,0,0,0,0,0,0,0,0,0,0,0,0,0,0,0,6.255377809,00:03:11,0,0,0,E 000°00.000,N 00°00.000,0,0,0,58,71,0,5.365998874,0,64,1.578523834,20.00883654,0,0,0
,,,,,,,,,00:03:16,28.08988764,1.434859475,40.30504142,1407.092173,1342.258455,239.1432458,58.12863543,28.64420838,30.02777989,22.69503505,0.953923616,16.66666667,4.051172708,95,14.81149656,0,0,0,0,,15.48,5.17,20.8,0.07,0.784,1.352,2.136,0.367041199,1.359,111,37,0,0,0,0,21,0,623,769,0,0,0,0,0,0,0,0,0,,6.980589215,418.8353529,10052.04847,6029.562055,162.129814,0,0,160.4544134,1508.271486,2047.102668,8597.831205,0,15.00461811,85.53312521,0.953923616,1,0,0,0,0,0,0,0,0,0,0,0,0,0,0,0,0,0,0,0,0,0,0,0,0,0,0,0,0,0,0,0,0,6.484295729,00:03:12,0,0,0,E 000°00.000,N 00°00.000,0,0,0,60,70,0,5.48004232,0,65,1.605359372,20.0184608,0,0,0
,,,,,,,,,00:03:18,32.50270856,1.486869306,48.32727973,1579.367814,1560.490213,251.1768931,58.43457562,30.59912916,30.96929371,25.47367442,0.988047369,16.89300412,3.930041152,97,16.28214241,0,0,0,0,,15.88,4.98,20.79,0.07,0.748,1.098,1.846,0.405200433,1.443,114,35,0,0,0,0,21,0,623,769,0,0,0,0,0,0,0,0,0,,7.901916098,474.1149659,11378.75918,6825.36846,183.5283739,0,0,46.72025738,439.1704194,2619.239118,11000.8043,0,3.859563353,96.6784174,0.988047369,2,0,0,0,0,0,0,0,0,0,0,0,0,0,0,0,0,0,0,0,0,0,0,0,0,0,0,0,0,0,0,0,0,7.278192691,00:03:14,0,0,0,E 000°00.000,N 00°00.000,0,0,0,67,64,0,5.728084075,0,66,1.68419235,20.00883654,0,0,0
,,,,,,,,,00:03:23,25.16778523,2.010027025,50.58792849,1412.125063,1546.4007,349.485673,74.85336563,35.82397183,32.7133378,22.7762107,1.095087638,17.38711314,3.723997971,101,13.98143627,0,0,0,0,,16.22,4.88,20.79,0.07,0.866,1.518,2.384,0.363255034,1.995,117,35,0,0,0,0,21,0,623,769,0,0,0,0,0,0,0,0,0,,7.252142531,435.1285518,10443.08524,6264.11927,168.4368588,0,0,0,0,2499.843373,10499.34217,0,0,100,1.095087638,5,0,0,0,0,0,0,0,0,0,0,0,0,0,0,0,0,0,0,0,0,0,0,0,0,0,0,0,0,0,0,0,0,6.507488771,00:03:19,0,0,0,E 000°00.000,N 00°00.000,0,0,0,60,62,0,6.359503185,0,67,1.704046896,20.00883654,0,0,0
,,,,,,,,,00:03:25,26.9058296,1.660235412,44.67001108,1238.633281,1410.82969,288.705556,63.83951891,36.06395193,31.66222783,19.97795614,1.139021301,17.38943489,3.845208845,105,11.79650743,0,0,0,0,,16.21,4.94,20.8,0.07,0.812,1.418,2.23,0.364125561,1.588,117,35,0,0,0,0,21,0,623,769,0,0,0,0,0,0,0,0,0,,6.428468761,385.7081256,9256.995015,5552.661833,149.3063712,0,0,0,0,2215.925909,9306.888817,0,0,100,1.139021301,2,0,0,0,0,0,0,0,0,0,0,0,0,0,0,0,0,0,0,0,0,0,0,0,0,0,0,0,0,0,0,0,0,5.707987468,00:03:21,0,0,0,E 000°00.000,N 00°00.000,0,0,0,53,66,0,6.587513373,0,68,1.65001606,20.0184608,0,0,0
,,,,,,,,,00:03:27,25.04173623,1.900908359,47.60204571,1325.961342,1516.796745,330.0074812,73.73158494,35.90002529,31.38327258,21.38647326,1.143922298,17.36051502,3.878755365,108,12.27741983,0,0,0,0,,16.23,4.98,20.79,0.07,0.89,1.506,2.396,0.371452421,1.818,117,35,0,0,0,0,21,0,623,769,0,0,0,0,0,0,0,0,0,,6.889737408,413.3842445,9921.221868,5951.08779,160.0197075,0,0,0,0,2374.928301,9974.698866,0,0,100,1.143922298,2,0,0,0,0,0,0,0,0,0,0,0,0,0,0,0,0,0,0,0,0,0,0,0,0,0,0,0,0,0,0,0,0,6.110420931,00:03:23,0,0,0,E 000°00.000,N 00°00.000,0,0,0,56,64,0,6.809483476,0,69,1.677625617,20.00883654,0,0,0
,,,,,,,,,00:03:31,20.6043956,2.554600557,52.63600049,1434.003877,1662.91032,445.1429713,98.00283974,36.70561938,31.65293994,23.12909478,1.159627493,17.4251497,3.836327345,112,12.80360604,0,0,0,0,,16.23,5.03,20.79,0.06,1.04,1.872,2.912,0.357142857,2.464,117,36,0,0,0,0,21,0,622,769,0,0,0,0,0,0,0,0,0,,7.478988724,448.7393234,10769.74376,6460.060208,173.7055446,0,0,0,0,2578.04886,10827.80521,0,0,100,1.159627493,4,0,0,0,0,0,0,0,0,0,0,0,0,0,0,0,0,0,0,0,0,0,0,0,0,0,0,0,0,0,0,0,0,6.608312795,00:03:27,0,0,0,E 000°00.000,N 00°00.000,0,0,0,61,60,0,7.288441014,0,70,1.721282882,20.00883654,0,0,0
,,,,,,,,,00:03:33,20.4638472,2.511768931,51.40045561,1425.328253,1636.285452,436.372686,97.08501918,36.06218813,31.41289042,22.98916537,1.148006046,17.37312221,3.865205035,115,12.39415872,0,0,0,0,,16.03,5.1,20.79,0.06,1.058,1.874,2.932,0.360845839,2.395,115,36,0,0,0,0,21,0,622,769,0,0,0,0,0,0,0,0,0,,7.41325123,444.7950738,10675.08177,6403.278712,172.1787382,0,0,0,0,2555.386901,10732.62498,0,0,100,1.148006046,2,0,0,0,0,0,0,0,0,0,0,0,0,0,0,0,0,0,0,0,0,0,0,0,0,0,0,0,0,0,0,0,0,6.568332964,00:03:29,0,0,0,E 000°00.000,N 00°00.000,0,0,0,61,61,0,7.536645013,0,71,1.710966969,20.00883654,0,0,0
,,,,,,,,,00:03:35,23.21981424,2.168096122,50.3427892,1581.044066,1674.36862,368.3519845,87.49889333,31.84148391,30.06673,25.50071075,1.059027168,16.98965193,4.035747883,117,13.51319715,0,0,0,0,,15.79,5.14,20.79,0.06,1.02,1.564,2.584,0.394736842,2.078,114,37,0,0,0,0,21,0,622,769,0,0,0,0,0,0,0,0,0,,8.049121598,482.9472959,11590.7351,6952.518858,186.9473403,0,0,0,0,2774.558763,11653.14681,0,0,100,1.059027168,2,0,0,0,0,0,0,0,0,0,0,0,0,0,0,0,0,0,0,0,0,0,0,0,0,0,0,0,0,0,0,0,0,7.285917357,00:03:31,0,0,0,E 000°00.000,N 00°00.000,0,0,0,67,62,0,7.794351227,0,72,1.701937274,20.00883654,0,0,0
,,,,,,,,,00:03:37,24.44987775,2.057957654,50.31681307,1635.686872,1657.962802,347.6500319,82.50187029,30.76188599,30.34857779,26.38204632,1.013618701,16.89296333,4.008919722,118,13.86175315,0,0,0,0,,15.53,5.18,20.79,0.07,0.956,1.498,2.454,0.389568052,1.994,112,37,0,0,0,0,21,0,622,769,0,0,0,0,0,0,0,0,0,,8.235432048,494.1259229,11859.02215,7113.446595,191.2745508,0,0,0,0,2838.771952,11922.8422,0,0,100,1.013618701,2,0,0,0,0,0,0,0,0,0,0,0,0,0,0,0,0,0,0,0,0,0,0,0,0,0,0,0,0,0,0,0,0,7.53772752,00:03:33,0,0,0,E 000°00.000,N 00°00.000,0,0,0,70,62,0,8.065760454,0,73,1.701713126,20.00883654,0,0,0
,,,,,,,,,00:03:41,21.9941349,2.462818501,54.16756234,1780.039253,1759.038709,415.2628131,97.08501918,30.43054374,30.79384328,28.71031053,0.988202202,16.86128364,3.942028986,119,14.95831305,0,0,0,0,,15.41,5.18,20.78,0.06,1.068,1.66,2.728,0.391495601,2.488,111,37,0,0,0,0,21,0,622,769,0,0,0,0,0,0,0,0,0,,8.906259299,534.375558,12825.01339,7692.88114,206.8550547,0,0,51.97434048,488.5588005,2953.678769,12405.45083,0,3.809421368,96.72856045,0.988202202,4,0,0,0,0,0,0,0,0,0,0,0,0,0,0,0,0,0,0,0,0,0,0,0,0,0,0,0,0,0,0,0,0,8.202945866,00:03:37,0,0,0,E 000°00.000,N 00°00.000,0,0,0,76,59,0,8.637150166,0,74,1.733739292,19.99921228,0,0,0
,,,,,,,,,00:03:42,26.22377622,1.849918328,48.51184426,1776.35103,1609.053948,305.0223659,74.6494055,27.30982978,30.1492963,28.65082307,0.905819808,16.48842337,4.035281147,120,14.80292525,0,0,0,0,,15.21,5.15,20.78,0.07,0.99,1.298,2.288,0.432692308,1.898,109,37,0,0,0,0,21,0,622,769,0,0,0,0,0,0,0,0,0,,8.706782979,522.4069787,12537.76749,7520.581236,202.2220563,0,0,414.0264092,3891.848246,2074.594623,8713.297417,0,31.04099872,69.49640296,0.905819808,1,0,0,0,0,0,0,0,0,0,0,0,0,0,0,0,0,0,0,0,0,0,0,0,0,0,0,0,0,0,0,0,0,8.185949448,00:03:38,0,0,0,E 000°00.000,N 00°00.000,0,0,0,76,63,0,8.783925518,0,75,1.685847785,19.99921228,0,0,0
,,,,,,,,,00:03:44,26.52519894,1.866235138,49.50225829,1852.786723,1645.371388,306.2461267,75.465246,26.71773156,30.08576584,29.88365682,0.888052234,16.40983607,4.043715847,120,15.43988935,0,0,0,0,,15.08,5.19,20.78,0.07,0.96,1.302,2.262,0.424403183,1.929,108,37,0,0,0,0,21,0,622,769,0,0,0,0,0,0,0,0,0,,9.040711005,542.4426603,13018.62385,7809.015305,209.977804,0,0,513.3060568,4825.076933,1967.498218,8263.492514,0,37.06288,63.47439339,0.888052234,2,0,0,0,0,0,0,0,0,0,0,0,0,0,0,0,0,0,0,0,0,0,0,0,0,0,0,0,0,0,0,0,0,8.538187661,00:03:40,0,0,0,E 000°00.000,N 00°00.000,0,0,0,79,63,0,9.079717084,0,76,1.694625012,19.99921228,0,0,0
,,,,,,,,,00:03:46,28.76318313,1.721423449,49.51361791,1900.927861,1644.293237,280.7511111,69.55040239,26.04707887,30.11240137,30.66012678,0.864995075,16.30924171,4.04028436,120,15.84106551,0,0,0,0,,14.9,5.21,20.77,0.07,0.892,1.194,2.086,0.427612656,1.789,107,37,0,0,0,0,21,0,622,769,0,0,0,0,0,0,0,0,0,,9.221398975,553.2839385,13278.81452,7965.086561,214.1744278,0,0,635.1047084,5969.984259,1757.17892,7380.151463,0,44.95871411,55.57839105,0.864995075,2,0,0,0,0,0,0,0,0,0,0,0,0,0,0,0,0,0,0,0,0,0,0,0,0,0,0,0,0,0,0,0,0,8.760036224,00:03:42,0,0,0,E 000°00.000,N 00°00.000,0,0,0,81,63,0,9.384085584,0,77,1.694724661,19.98958802,0,0,0
,,,,,,,,,00:03:48,27.98507463,1.786690689,50.00067227,1980.719724,1684.65522,289.1134762,73.22168463,25.24368878,29.68006253,31.94709232,0.850526806,16.18150685,4.098173516,119,16.64470356,0,0,0,0,,14.74,5.25,20.77,0.07,0.942,1.202,2.144,0.439365672,1.826,106,37,0,0,0,0,21,0,622,769,0,0,0,0,0,0,0,0,0,,9.573019782,574.3811869,13785.14849,8268.802969,222.3411046,0,0,732.6777044,6887.170422,1660.00098,6972.004118,0,49.96079968,50.5761989,0.850526806,2,0,0,0,0,0,0,0,0,0,0,0,0,0,0,0,0,0,0,0,0,0,0,0,0,0,0,0,0,0,0,0,0,9.127740662,00:03:44,0,0,0,E 000°00.000,N 00°00.000,0,0,0,84,62,0,9.697325897,0,78,1.698975844,19.98958802,0,0,0
,,,,,,,,,00:03:49,33.44481605,1.319622004,44.1345152,1997.329707,1565.911591,205.8977455,56.90487469,22.09676001,28.18455106,32.21499528,0.784002554,15.60278207,4.312210201,119,16.78428325,0,0,0,0,,14.5,5.3,20.77,0.07,0.826,0.968,1.794,0.460423634,1.304,104,38,0,0,0,0,21,0,623,769,0,0,0,0,0,0,0,0,0,,9.488936261,569.3361756,13664.06822,8196.174886,220.388197,0,0,1067.600631,10035.44593,881.411849,3701.929766,0,73.44405616,27.09244207,0.784002554,1,0,0,0,0,0,0,0,0,0,0,0,0,0,0,0,0,0,0,0,0,0,0,0,0,0,0,0,0,0,0,0,0,9.204284364,00:03:45,0,0,0,E 000°00.000,N 00°00.000,0,0,0,85,67,0,9.85617553,0,79,1.64477836,19.98958802,0,0,0
,,,,,,,,,00:03:51,34.56221198,1.468512895,50.75505398,2308.257032,1783.223128,228.9452396,62.71773823,21.98847583,28.46253685,37.22995214,0.77254097,15.59027778,4.270833333,119,19.39711792,0,0,0,0,,14.42,5.31,20.77,0.07,0.796,0.94,1.736,0.458525346,1.44,104,38,0,0,0,0,21,0,623,769,0,0,0,0,0,0,0,0,0,,10.93336685,656.0020109,15744.04826,9443.817971,253.9362623,0,0,1299.256646,12213.01248,860.83059,3615.488478,0,77.57224999,22.96416028,0.77254097,2,0,0,0,0,0,0,0,0,0,0,0,0,0,0,0,0,0,0,0,0,0,0,0,0,0,0,0,0,0,0,0,0,10.63712918,00:03:47,0,0,0,E 000°00.000,N 00°00.000,0,0,0,99,62,0,10.19654725,0,80,1.705479294,19.98958802,0,0,0
,,,,,,,,,00:03:53,34.60207612,1.580690963,54.69518905,2419.680813,1874.501386,248.6273915,65.87912016,22.60429919,29.17852686,39.02710989,0.774689528,15.72903226,4.167741935,118,20.5057696,0,0,0,0,,14.57,5.2,20.77,0.07,0.806,0.928,1.734,0.464821223,1.561,105,37,0,0,0,0,21,0,622,769,0,0,0,0,0,0,0,0,0,,11.46757137,688.0542822,16513.30277,9905.243104,266.3435931,0,0,1349.110714,12681.64071,933.3913909,3920.243842,0,76.79651301,23.73991379,0.774689528,2,0,0,0,0,0,0,0,0,0,0,0,0,0,0,0,0,0,0,0,0,0,0,0,0,0,0,0,0,0,0,0,0,11.15060283,00:03:49,0,0,0,E 000°00.000,N 00°00.000,0,0,0,103,59,0,10.56989622,0,81,1.737949128,19.98958802,0,0,0
,,,,,,,,,00:03:55,35.0877193,1.546017742,54.24623657,2367.97058,1837.283006,244.3442289,63.53357873,22.9083237,29.5252481,38.19307388,0.775889287,15.80474934,4.109498681,118,20.06754729,0,0,0,0,,14.72,5.08,20.78,0.06,0.804,0.906,1.71,0.470175439,1.564,106,36,0,0,0,0,21,0,622,769,0,0,0,0,0,0,0,0,0,,11.22601584,673.5609506,16165.46281,9696.596815,260.7332712,0,0,1313.249821,12344.54831,930.3885395,3907.631866,0,76.36371724,24.17271878,0.775889287,2,0,0,0,0,0,0,0,0,0,0,0,0,0,0,0,0,0,0,0,0,0,0,0,0,0,0,0,0,0,0,0,0,10.91230682,00:03:51,0,0,0,E 000°00.000,N 00°00.000,0,0,0,101,59,0,10.94812267,0,82,1.734369614,19.99921228,0,0,0
,,,,,,,,,00:03:56,34.40366972,1.568453356,53.96055124,2320.708562,1815.760981,248.9333317,64.04347904,23.25175686,29.71787135,37.43078326,0.782416634,15.87126138,4.083224967,118,19.66702171,0,0,0,0,,14.86,4.99,20.78,0.06,0.814,0.93,1.744,0.466743119,1.601,107,36,0,0,0,0,21,0,622,769,0,0,0,0,0,0,0,0,0,,11.02069541,661.2417244,15869.80139,9519.248991,255.9645385,0,0,1249.557793,11745.84325,1002.16605,4209.097409,0,74.01380124,26.52268485,0.782416634,1,0,0,0,0,0,0,0,0,0,0,0,0,0,0,0,0,0,0,0,0,0,0,0,0,0,0,0,0,0,0,0,0,10.6945095,00:03:52,0,0,0,E 000°00.000,N 00°00.000,0,0,0,99,59,0,11.13351193,0,83,1.732076378,19.99921228,0,0,0
,,,,,,,,,00:03:58,34.24657534,1.572532559,53.85385474,2291.304723,1813.257568,250.2590725,64.24743916,23.50357603,29.70005789,36.95652778,0.791364654,15.91439689,4.085603113,118,19.41783663,0,0,0,0,,14.89,4.97,20.78,0.06,0.842,0.91,1.752,0.480593607,1.595,107,35,0,0,0,0,21,0,622,769,0,0,0,0,0,0,0,0,0,,10.90642277,654.3853661,15705.24879,9420.54472,253.3104643,0,0,1182.995249,11120.15534,1111.752538,4669.360658,0,70.80534344,29.73121102,0.791364654,2,0,0,0,0,0,0,0,0,0,0,0,0,0,0,0,0,0,0,0,0,0,0,0,0,0,0,0,0,0,0,0,0,10.55900794,00:03:54,0,0,0,E 000°00.000,N 00°00.000,0,0,0,98,59,0,11.4989639,0,84,1.731216795,19.99921228,0,0,0
,,,,,,,,,00:04:00,34.09090909,1.536839537,52.39225694,2245.294657,1776.54783,244.0382888,63.22763854,23.33424559,29.49104778,36.21442995,0.791231487,15.87923026,4.114134041,118,19.02792082,0,0,0,0,,14.9,4.97,20.78,0.06,0.85,0.91,1.76,0.482954545,1.577,107,35,0,0,0,0,21,0,622,769,0,0,0,0,0,0,0,0,0,,10.68704876,641.2229258,15389.35022,9231.057968,248.2153261,0,0,1159.980188,10903.81376,1087.644891,4568.108542,0,70.85298346,29.68356999,0.791231487,2,0,0,0,0,0,0,0,0,0,0,0,0,0,0,0,0,0,0,0,0,0,0,0,0,0,0,0,0,0,0,0,0,10.34697999,00:03:56,0,0,0,E 000°00.000,N 00°00.000,0,0,0,96,61,0,11.85885509,0,85,1.719267107,19.99921228,0,0,0
,,,,,,,,,00:04:02,34.16856492,1.52562173,52.12830512,2277.616614,1798.270651,240.9788869,63.83951891,22.88721675,28.98801973,36.73575184,0.78954054,15.79545455,4.184491979,118,19.30183571,0,0,0,0,,14.75,5.04,20.79,0.06,0.846,0.91,1.756,0.481776765,1.52,106,36,0,0,0,0,21,0,622,769,0,0,0,0,0,0,0,0,0,,10.83612921,650.1677527,15604.02607,9359.827875,251.6778398,0,0,1186.208105,11150.35619,1080.331382,4537.391805,0,71.45820021,29.07834034,0.78954054,2,0,0,0,0,0,0,0,0,0,0,0,0,0,0,0,0,0,0,0,0,0,0,0,0,0,0,0,0,0,0,0,0,10.4959291,00:03:58,0,0,0,E 000°00.000,N 00°00.000,0,0,0,97,61,0,12.21757473,0,86,1.717073605,20.00883654,0,0,0
,,,,,,,,,00:04:03,33.59462486,1.685730428,56.63148133,2430.655094,1931.572072,267.493703,69.75436252,23.2988553,29.31885491,39.20411442,0.794671394,15.86811857,4.137931034,118,20.59877198,0,0,0,0,,14.76,5.06,20.78,0.06,0.868,0.918,1.786,0.48600224,1.674,106,36,0,0,0,0,21,0,622,769,0,0,0,0,0,0,0,0,0,,11.57966156,694.7796938,16674.71265,10002.06226,268.9469782,0,0,1235.053794,11609.50567,1227.304785,5154.680098,0,69.62342266,30.91315698,0.794671394,1,0,0,0,0,0,0,0,0,0,0,0,0,0,0,0,0,0,0,0,0,0,0,0,0,0,0,0,0,0,0,0,0,11.20117555,00:03:59,0,0,0,E 000°00.000,N 00°00.000,0,0,0,104,57,0,12.40437298,0,87,1.753057922,19.99921228,0,0,0
,,,,,,,,,00:04:05,32.7510917,1.858076733,60.85404146,2517.622509,2033.908783,297.8837616,75.36326594,24.17123347,29.91974959,40.60681467,0.807868843,16.03183315,4.055982437,119,21.15649167,0,0,0,0,,14.85,5.06,20.78,0.06,0.896,0.936,1.832,0.489082969,1.868,107,36,0,0,0,0,21,0,622,769,0,0,0,0,0,0,0,0,0,,12.03507587,722.1045523,17330.50926,10395.43147,279.5243428,0,0,1197.029156,11252.07407,1469.391552,6171.444518,0,64.92639022,35.6102895,0.807868843,2,0,0,0,0,0,0,0,0,0,0,0,0,0,0,0,0,0,0,0,0,0,0,0,0,0,0,0,0,0,0,0,0,11.60194705,00:04:01,0,0,0,E 000°00.000,N 00°00.000,0,0,0,108,54,0,12.79795194,0,88,1.784289426,19.99921228,0,0,0
,,,,,,,,,00:04:07,32.93084523,1.83666092,60.48279647,2456.446786,2008.928181,296.0481205,74.03752513,24.62206664,30.10699788,39.62010946,0.817818726,16.11882288,4.031093837,119,20.64240997,0,0,0,0,,14.94,5.04,20.79,0.06,0.864,0.958,1.822,0.474204171,1.883,107,36,0,0,0,0,21,0,622,769,0,0,0,0,0,0,0,0,0,,11.77286946,706.3721675,16952.93202,10168.94775,273.4343874,0,0,1107.464565,10410.16691,1579.46685,6633.76077,0,61.40629185,39.13046287,0.817818726,2,0,0,0,0,0,0,0,0,0,0,0,0,0,0,0,0,0,0,0,0,0,0,0,0,0,0,0,0,0,0,0,0,11.32003127,00:04:03,0,0,0,E 000°00.000,N 00°00.000,0,0,0,105,54,0,13.19475103,0,89,1.781631863,20.00883654,0,0,0
,,,,,,,,,00:04:09,33.14917127,1.831561916,60.71475966,2418.558862,2008.216324,296.4560407,73.52762482,25.1036932,30.23317704,39.0090139,0.830335931,16.18596882,4.014476615,120,20.15465718,0,0,0,0,,15.05,5.05,20.78,0.06,0.856,0.954,1.81,0.472928177,1.871,108,36,0,0,0,0,21,0,621,769,0,0,0,0,0,0,0,0,0,,11.62873465,697.724079,16745.3779,10044.44969,270.0867403,0,0,1015.472857,9545.444858,1735.673894,7289.830354,0,57.0034604,43.53338814,0.830335931,2,0,0,0,0,0,0,0,0,0,0,0,0,0,0,0,0,0,0,0,0,0,0,0,0,0,0,0,0,0,0,0,0,11.14543254,00:04:05,0,0,0,E 000°00.000,N 00°00.000,0,0,0,103,54,0,13.58477777,0,90,1.78329428,19.99921228,0,0,0
,,,,,,,,,00:04:11,32.93084523,1.867254938,61.49028336,2417.067428,2030.933762,303.1867248,74.85336563,25.44003641,30.2768532,38.98495851,0.840247044,16.23702895,4.008738394,121,19.97576387,0,0,0,0,,15.12,5.04,20.78,0.06,0.868,0.954,1.822,0.476399561,1.943,109,36,0,0,0,0,21,0,622,769,0,0,0,0,0,0,0,0,0,,11.65119701,699.0718204,16777.72369,10063.8518,270.6084466,0,0,955.5685272,8982.344155,1877.491164,7885.46289,0,53.53732318,46.9995992,0.840247044,2,0,0,0,0,0,0,0,0,0,0,0,0,0,0,0,0,0,0,0,0,0,0,0,0,0,0,0,0,0,0,0,0,11.13855957,00:04:07,0,0,0,E 000°00.000,N 00°00.000,0,0,0,103,54,0,13.97277663,0,91,1.788806494,19.99921228,0,0,0
,,,,,,,,,00:04:12,33.03964758,1.825443113,60.31199712,2378.96827,2004.522026,296.2520806,73.62960488,25.35216542,30.08796926,38.37045597,0.842601413,16.22905028,4.033519553,121,19.66089479,0,0,0,0,,15.15,5.04,20.79,0.06,0.852,0.964,1.816,0.469162996,1.878,109,36,0,0,0,0,21,0,622,769,0,0,0,0,0,0,0,0,0,,11.47447278,688.4683665,16523.2408,9911.204271,266.5038838,0,0,926.6467635,8710.479577,1881.305021,7901.481089,0,52.71653233,47.82040754,0.842601413,1,0,0,0,0,0,0,0,0,0,0,0,0,0,0,0,0,0,0,0,0,0,0,0,0,0,0,0,0,0,0,0,0,10.96298742,00:04:08,0,0,0,E 000°00.000,N 00°00.000,0,0,0,102,55,0,14.16549054,0,92,1.78040371,20.00883654,0,0,0
,,,,,,,,,00:04:14,34.96503497,1.768334278,61.82986986,2436.008813,2056.72565,286.8699149,71.38604351,25.38162815,30.06228364,39.29046472,0.8443014,16.22260669,4.036908881,121,20.13230424,0,0,0,0,,15.16,5.02,20.78,0.06,0.818,0.898,1.716,0.476689977,1.799,109,36,0,0,0,0,21,0,622,769,0,0,0,0,0,0,0,0,0,,11.75471895,705.283137,16926.79529,10153.27004,273.0128272,0,0,938.6176284,8823.005707,1951.113912,8194.678428,0,52.12448994,48.41246254,0.8443014,2,0,0,0,0,0,0,0,0,0,0,0,0,0,0,0,0,0,0,0,0,0,0,0,0,0,0,0,0,0,0,0,0,11.22584706,00:04:10,0,0,0,E 000°00.000,N 00°00.000,0,0,0,104,53,0,14.55264374,0,93,1.791198332,19.99921228,0,0,0
,,,,,,,,,00:04:16,33.44481605,1.966175598,65.75838122,2553.919889,2172.250316,320.3193752,78.83058805,25.74802033,30.27200905,41.19225628,0.850555385,16.29149378,4.0093361,122,20.93376958,0,0,0,0,,15.2,5,20.79,0.06,0.858,0.936,1.794,0.47826087,1.96,109,36,0,0,0,0,21,0,621,769,0,0,0,0,0,0,0,0,0,,12.34344474,740.6066845,17774.56043,10661.78853,286.6864585,0,0,944.5265737,8878.549793,2140.823765,8991.459811,0,49.95088249,50.58611631,0.850555385,2,0,0,0,0,0,0,0,0,0,0,0,0,0,0,0,0,0,0,0,0,0,0,0,0,0,0,0,0,0,0,0,0,11.76921608,00:04:12,0,0,0,E 000°00.000,N 00°00.000,0,0,0,109,51,0,14.9542798,0,94,1.817951114,20.00883654,0,0,0
,,,,,,,,,00:04:18,32.1888412,2.031442838,65.38979093,2519.493778,2161.021331,331.7411422,81.48206967,25.95354333,30.25874386,40.63699641,0.857720448,16.33032129,4.011044177,122,20.65158834,0,0,0,0,,15.22,5.01,20.8,0.06,0.884,0.98,1.864,0.474248927,2.027,109,36,0,0,0,0,21,0,621,769,0,0,0,0,0,0,0,0,0,,12.19938936,731.9633616,17567.12068,10537.35908,283.3406561,0,0,887.1235992,8338.961832,2219.643658,9322.503362,0,47.46914412,53.06790756,0.857720448,2,0,0,0,0,0,0,0,0,0,0,0,0,0,0,0,0,0,0,0,0,0,0,0,0,0,0,0,0,0,0,0,0,11.6105704,00:04:14,0,0,0,E 000°00.000,N 00°00.000,0,0,0,108,51,0,15.36332703,0,95,1.815509949,20.0184608,0,0,0
,,,,,,,,,00:04:20,32.32758621,2.040621044,65.96835271,2524.532861,2175.709551,333.9847036,81.68602979,26.13091465,30.32038568,40.71827195,0.861826592,16.36681659,4.002998501,122,20.6928923,0,0,0,0,,15.27,5.01,20.81,0.06,0.862,0.994,1.856,0.464439655,2.04,110,36,0,0,0,0,21,0,620,769,0,0,0,0,0,0,0,0,0,,12.23661146,734.1966877,17620.7205,10569.51009,284.2051694,0,0,863.2465064,8114.51716,2285.914534,9600.841042,0,46.05099524,54.48608665,0.861826592,2,0,0,0,0,0,0,0,0,0,0,0,0,0,0,0,0,0,0,0,0,0,0,0,0,0,0,0,0,0,0,0,0,11.63379199,00:04:16,0,0,0,E 000°00.000,N 00°00.000,0,0,0,108,50,0,15.77059371,0,96,1.819335639,20.02808506,0,0,0
,,,,,,,,,00:04:22,32.11991435,2.114046689,67.90299856,2546.610544,2223.353571,347.4460718,84.23553135,26.66406873,30.54080082,41.07436361,0.873063836,16.43511819,3.984563435,123,20.70415076,0,0,0,0,,15.3,5.03,20.8,0.07,0.868,1,1.868,0.464668094,2.106,110,36,0,0,0,0,21,0,620,769,0,0,0,0,0,0,0,0,0,,12.37902283,742.7413701,17825.79288,10692.51951,287.5127884,0,0,799.9814144,7519.825295,2476.600327,10401.72137,0,42.18508172,58.35208253,0.873063836,2,0,0,0,0,0,0,0,0,0,0,0,0,0,0,0,0,0,0,0,0,0,0,0,0,0,0,0,0,0,0,0,0,11.73553246,00:04:18,0,0,0,E 000°00.000,N 00°00.000,0,0,0,109,49,0,16.18085429,0,97,1.831888953,20.0184608,0,0,0
,,,,,,,,,00:04:23,32.71537623,1.961076595,64.15735863,2407.829588,2114.026279,322.1550164,78.62662793,26.64530702,30.34842058,38.83596109,0.877980024,16.4274571,4.009360374,124,19.41798055,0,0,0,0,,15.3,5.05,20.8,0.07,0.842,0.992,1.834,0.45910578,1.98,110,36,0,0,0,0,21,0,620,769,0,0,0,0,0,0,0,0,0,,11.71905418,703.1432507,16875.43802,10122.46419,272.1844841,0,0,727.0927924,6834.672249,2412.24301,10131.42064,0,40.50071022,60.03648992,0.877980024,1,0,0,0,0,0,0,0,0,0,0,0,0,0,0,0,0,0,0,0,0,0,0,0,0,0,0,0,0,0,0,0,0,11.09598888,00:04:19,0,0,0,E 000°00.000,N 00°00.000,0,0,0,103,52,0,16.38167159,0,98,1.807246476,20.0184608,0,0,0
,,,,,,,,,00:04:25,34.20752566,1.861136134,63.66486207,2385.035417,2104.976691,305.4302862,75.05732575,26.69346611,30.24492496,38.46831318,0.882576702,16.4109589,4.032876712,124,19.23415659,0,0,0,0,,15.3,5.08,20.78,0.08,0.796,0.958,1.754,0.45381984,1.863,110,36,0,0,0,0,21,0,620,769,0,0,0,0,0,0,0,0,0,,11.62167508,697.3005047,16735.21211,10038.35191,269.922776,0,0,693.0799702,6514.95172,2454.801804,10310.16758,0,38.9296035,61.60763012,0.882576702,2,0,0,0,0,0,0,0,0,0,0,0,0,0,0,0,0,0,0,0,0,0,0,0,0,0,0,0,0,0,0,0,0,10.99094662,00:04:21,0,0,0,E 000°00.000,N 00°00.000,0,0,0,102,52,0,16.77068375,0,99,1.803899802,19.99921228,0,0,0
,,,,,,,,,00:04:28,32.32758621,2.095690277,67.74860811,2488.414813,2235.191834,345.2025104,84.33751141,27.22560875,30.30997478,40.13572279,0.898239241,16.47201946,4.0243309,124,20.06786139,0,0,0,0,,15.26,5.1,20.77,0.08,0.786,1.07,1.856,0.423491379,2.075,110,36,0,0,0,0,21,0,620,769,0,0,0,0,0,0,0,0,0,,12.17362871,730.4177223,17530.02534,10515.10803,282.7423441,0,0,626.6730611,5890.726774,2793.689439,11733.49564,0,33.60364096,66.93370613,0.898239241,3,0,0,0,0,0,0,0,0,0,0,0,0,0,0,0,0,0,0,0,0,0,0,0,0,0,0,0,0,0,0,0,0,11.46734937,00:04:24,0,0,0,E 000°00.000,N 00°00.000,0,0,0,106,49,0,17.36556634,0,100,1.830900377,19.98958802,0,0,0
,,,,,,,,,00:04:29,32.46753247,2.030423038,65.9228259,2392.094463,2174.301102,334.9025241,81.68602979,27.5586215,30.31908775,38.58216876,0.908952859,16.49422401,4.023103968,125,19.13675571,0,0,0,0,,15.27,5.1,20.75,0.08,0.79,1.058,1.848,0.427489177,2.045,110,36,0,0,0,0,21,0,619,769,0,0,0,0,0,0,0,0,0,,11.73411963,704.0471777,16897.13227,10135.47715,272.5343914,0,0,538.9953828,5066.556598,2838.424986,11921.38494,0,29.9847129,70.55271129,0.908952859,1,0,0,0,0,0,0,0,0,0,0,0,0,0,0,0,0,0,0,0,0,0,0,0,0,0,0,0,0,0,0,0,0,11.02347679,00:04:25,0,0,0,E 000°00.000,N 00°00.000,0,0,0,102,50,0,17.56479758,0,101,1.819035816,19.9703395,0,0,0
,,,,,,,,,00:04:33,27.93296089,2.2976108,64.17907264,2348.672769,2163.502102,378.3460306,94.43353756,27.32567665,29.66443739,37.88181886,0.921159444,16.46693298,4.110075455,125,18.78938215,0,0,0,0,,15.16,5.21,20.77,0.08,0.846,1.302,2.148,0.393854749,2.27,109,37,0,0,0,0,21,0,619,769,0,0,0,0,0,0,0,0,0,,11.55658384,693.3950304,16641.48073,9982.128622,268.4109795,0,0,458.2636654,4307.678455,2957.917179,12423.25215,0,25.88518729,74.65232424,0.921159444,4,0,0,0,0,0,0,0,0,0,0,0,0,0,0,0,0,0,0,0,0,0,0,0,0,0,0,0,0,0,0,0,0,10.82337682,00:04:29,0,0,0,E 000°00.000,N 00°00.000,0,0,0,100,52,0,18.34115436,0,102,1.807393437,19.98958802,0,0,0
,,,,,,,,,00:04:35,26.33889377,2.323105816,61.1880373,2283.722188,2100.247363,380.589592,97.18699924,26.79311767,29.1337289,36.83422883,0.919659744,16.38279192,4.183494293,125,18.2697775,0,0,0,0,,15.01,5.36,20.77,0.08,0.902,1.376,2.278,0.39596137,2.297,108,38,0,0,0,0,21,0,618,769,0,0,0,0,0,0,0,0,0,,11.23275958,673.9655748,16175.17379,9702.421793,260.8898999,0,0,454.0664025,4268.224183,2855.688406,11993.8913,0,26.38750123,74.1499996,0.919659744,2,0,0,0,0,0,0,0,0,0,0,0,0,0,0,0,0,0,0,0,0,0,0,0,0,0,0,0,0,0,0,0,0,10.52406538,00:04:31,0,0,0,E 000°00.000,N 00°00.000,0,0,0,97,54,0,18.72097675,0,103,1.786666523,19.98958802,0,0,0
,,,,,,,,,00:04:37,25.72898799,2.221125754,57.14731785,2183.135994,1976.525724,362.3351609,93.61769706,26.17671002,28.91301497,35.21187088,0.905360788,16.31313131,4.214876033,125,17.46508796,0,0,0,0,,14.87,5.42,20.79,0.08,0.894,1.438,2.332,0.383361921,2.251,107,39,0,0,0,0,21,0,618,769,0,0,0,0,0,0,0,0,0,,10.69939952,641.9639709,15407.1353,9241.726069,248.5021823,0,0,511.3184662,4806.393582,2543.699861,10683.53942,0,31.1958939,69.34150448,0.905360788,2,0,0,0,0,0,0,0,0,0,0,0,0,0,0,0,0,0,0,0,0,0,0,0,0,0,0,0,0,0,0,0,0,10.06053454,00:04:33,0,0,0,E 000°00.000,N 00°00.000,0,0,0,93,57,0,19.08651274,0,104,1.756995852,20.00883654,0,0,0
,,,,,,,,,00:04:38,28.16901408,1.947819187,54.86814612,2193.868603,1940.809452,313.6906712,83.92959116,25.00976861,28.27075376,35.38497747,0.884651638,16.10471204,4.308900524,125,17.55094882,0,0,0,0,,14.72,5.47,20.77,0.08,0.87,1.26,2.13,0.408450704,1.965,106,39,0,0,0,0,21,0,618,769,0,0,0,0,0,0,0,0,0,,10.69579848,641.7479088,15401.94981,9238.615635,248.4185454,0,0,626.2630294,5886.872476,2285.196217,9597.824111,0,38.22160537,62.31564333,0.884651638,1,0,0,0,0,0,0,0,0,0,0,0,0,0,0,0,0,0,0,0,0,0,0,0,0,0,0,0,0,0,0,0,0,10.10999356,00:04:34,0,0,0,E 000°00.000,N 00°00.000,0,0,0,94,59,0,19.26480605,0,105,1.739320287,19.98958802,0,0,0
,,,,,,,,,00:04:40,28.68068834,1.986571611,56.97624123,2316.198637,2014.431679,318.4837341,85.56127215,24.59903064,28.28402761,37.35804253,0.86971456,16.03182752,4.30698152,125,18.5295891,0,0,0,0,,14.66,5.46,20.76,0.08,0.864,1.228,2.092,0.413001912,1.979,105,39,0,0,0,0,21,0,618,769,0,0,0,0,0,0,0,0,0,,11.24939903,674.963942,16199.13461,9716.794308,261.2763646,0,0,746.7975557,7019.897023,2206.249899,9266.249577,0,43.3350126,57.20212716,0.86971456,2,0,0,0,0,0,0,0,0,0,0,0,0,0,0,0,0,0,0,0,0,0,0,0,0,0,0,0,0,0,0,0,0,10.67372644,00:04:36,0,0,0,E 000°00.000,N 00°00.000,0,0,0,99,57,0,19.63055934,0,106,1.755693795,19.97996376,0,0,0
,,,,,,,,,00:04:41,34.56221198,1.57457216,54.42069677,2276.797087,1901.734558,250.6669928,67.20486096,23.90230428,28.61634739,36.72253367,0.835267477,15.91968912,4.268134715,124,18.36126683,0,0,0,0,,14.74,5.34,20.75,0.09,0.774,0.962,1.736,0.445852535,1.631,106,38,0,0,0,0,21,0,618,769,0,0,0,0,0,0,0,0,0,,10.96101544,657.6609262,15783.86223,9467.699748,254.578423,0,0,928.1681196,8724.780325,1700.910272,7143.823143,0,55.27658693,45.2602984,0.835267477,1,0,0,0,0,0,0,0,0,0,0,0,0,0,0,0,0,0,0,0,0,0,0,0,0,0,0,0,0,0,0,0,0,10.49215248,00:04:37,0,0,0,E 000°00.000,N 00°00.000,0,0,0,97,59,0,19.81564613,0,107,1.735764098,19.9703395,0,0,0
,,,,,,,,,00:04:43,36.36363636,1.625562191,59.11135239,2430.110067,2029.25581,260.1511386,68.02070146,24.32455764,29.12957159,39.19532366,0.835046872,16.00376412,4.184441656,124,19.59766183,0,0,0,0,,14.86,5.2,20.75,0.08,0.744,0.906,1.65,0.450909091,1.672,107,37,0,0,0,0,21,0,618,769,0,0,0,0,0,0,0,0,0,,11.6984356,701.9061359,16845.74726,10104.65467,271.705601,0,0,991.9948476,9324.751567,1812.247087,7611.437763,0,55.35374253,45.18314115,0.835046872,2,0,0,0,0,0,0,0,0,0,0,0,0,0,0,0,0,0,0,0,0,0,0,0,0,0,0,0,0,0,0,0,0,11.1986639,00:04:39,0,0,0,E 000°00.000,N 00°00.000,0,0,0,104,56,0,20.19330365,0,108,1.771670896,19.9703395,0,0,0
,,,,,,,,,00:04:45,38.11944091,1.6408592,62.54863533,2537.454202,2120.346039,263.6184607,67.81674134,24.6501534,29.49925823,40.92668067,0.835619432,16.06587943,4.133001865,124,20.46334034,0,0,0,0,,14.99,5.11,20.75,0.08,0.74,0.834,1.574,0.470139771,1.66,108,36,0,0,0,0,21,0,618,769,0,0,0,0,0,0,0,0,0,,12.21698239,733.0189432,17592.45464,10552.55526,283.7492683,0,0,1032.218751,9702.856258,1900.964321,7984.050148,0,55.15351017,45.38337778,0.835619432,2,0,0,0,0,0,0,0,0,0,0,0,0,0,0,0,0,0,0,0,0,0,0,0,0,0,0,0,0,0,0,0,0,11.69333734,00:04:41,0,0,0,E 000°00.000,N 00°00.000,0,0,0,108,53,0,20.59189395,0,109,1.796217839,19.9703395,0,0,0
,,,,,,,,,00:04:46,38.61003861,1.581710764,61.06991367,2399.825843,2032.482506,256.5818364,64.04347904,25.44764399,30.04695662,38.70686843,0.846929169,16.22179239,4.049000645,124,19.35343421,0,0,0,0,,15.18,5.01,20.77,0.07,0.718,0.836,1.554,0.462033462,1.659,109,36,0,0,0,0,21,0,618,769,0,0,0,0,0,0,0,0,0,,11.58792237,695.2753422,16686.60821,10009.19763,269.1388421,0,0,909.0712855,8545.270084,1959.747747,8230.940537,0,51.21034769,49.32662427,0.846929169,1,0,0,0,0,0,0,0,0,0,0,0,0,0,0,0,0,0,0,0,0,0,0,0,0,0,0,0,0,0,0,0,0,11.05910527,00:04:42,0,0,0,E 000°00.000,N 00°00.000,0,0,0,102,54,0,20.79026816,0,110,1.785827306,19.98958802,0,0,0
,,,,,,,,,00:04:48,37.5,1.55825535,58.43457562,2288.689948,1961.788229,253.0125342,63.63555879,25.53188808,29.78638304,36.91435401,0.857166446,16.23691099,4.083769634,123,18.60723535,0,0,0,0,,15.24,5.02,20.78,0.07,0.726,0.874,1.6,0.45375,1.623,110,36,0,0,0,0,21,0,618,769,0,0,0,0,0,0,0,0,0,,11.08026873,664.816124,15955.58698,9570.706118,257.348177,0,0,808.9942336,7604.545795,2008.745304,8436.730277,0,47.66070848,52.87633911,0.857166446,2,0,0,0,0,0,0,0,0,0,0,0,0,0,0,0,0,0,0,0,0,0,0,0,0,0,0,0,0,0,0,0,0,10.54695829,00:04:44,0,0,0,E 000°00.000,N 00°00.000,0,0,0,98,56,0,21.16807134,0,111,1.766669894,19.99921228,0,0,0
,,,,,,,,,00:04:50,36.49635036,1.55825535,56.87063321,2256.754768,1940.418953,252.1966937,64.65535941,25.20018303,29.30843008,36.39927045,0.85982712,16.18455497,4.14921466,123,18.34759974,0,0,0,0,,15.18,5.06,20.79,0.07,0.75,0.894,1.644,0.45620438,1.61,109,36,0,0,0,0,21,0,618,769,0,0,0,0,0,0,0,0,0,,10.93308802,655.9852814,15743.64675,9443.577132,253.9297863,0,0,782.8475921,7358.767365,2016.53175,8469.433348,0,46.74118697,53.79588021,0.85982712,2,0,0,0,0,0,0,0,0,0,0,0,0,0,0,0,0,0,0,0,0,0,0,0,0,0,0,0,0,0,0,0,0,10.39979156,00:04:46,0,0,0,E 000°00.000,N 00°00.000,0,0,0,96,57,0,21.53496062,0,112,1.754888064,20.00883654,0,0,0
,,,,,,,,,00:04:52,32.71537623,1.519502926,49.71110991,2002.191198,1717.808528,245.0580894,63.83951891,24.82835304,28.9386792,32.29340642,0.857964279,16.12751678,4.201342282,122,16.41140326,0,0,0,0,,15.09,5.14,20.8,0.07,0.746,1.088,1.834,0.406761178,1.564,108,37,0,0,0,0,21,0,618,769,0,0,0,0,0,0,0,0,0,,9.695214068,581.7128441,13961.10826,8374.34965,225.1791654,0,0,703.7712773,6615.450007,1766.818302,7420.636867,0,47.38484857,53.1522049,0.857964279,2,0,0,0,0,0,0,0,0,0,0,0,0,0,0,0,0,0,0,0,0,0,0,0,0,0,0,0,0,0,0,0,0,9.226687547,00:04:48,0,0,0,E 000°00.000,N 00°00.000,0,0,0,85,63,0,21.87876565,0,113,1.69645346,20.0184608,0,0,0
,,,,,,,,,00:04:55,27.93296089,1.988611212,55.54779922,2212.233363,1933.10988,321.4411559,83.92959116,25.10937596,28.73494146,35.68118327,0.873827288,16.16410256,4.220512821,121,18.28292035,0,0,0,0,,15.06,5.2,20.8,0.06,0.878,1.27,2.148,0.408752328,2.036,108,37,0,0,0,0,21,0,618,769,0,0,0,0,0,0,0,0,0,,10.75571127,645.3426759,15488.22422,9290.365973,249.8100681,0,0,690.762181,6493.164502,2161.48995,9078.257789,0,41.92323412,58.61393572,0.873827288,3,0,0,0,0,0,0,0,0,0,0,0,0,0,0,0,0,0,0,0,0,0,0,0,0,0,0,0,0,0,0,0,0,10.19462379,00:04:51,0,0,0,E 000°00.000,N 00°00.000,0,0,0,94,58,0,22.39003879,0,114,1.744666857,20.0184608,0,0,0
,,,,,,,,,00:04:57,27.67527675,2.035522041,56.33363581,2272.707624,1978.340237,328.06986,86.88701296,24.78701406,28.47520097,36.65657458,0.87047723,16.11723447,4.268537074,121,18.78270763,0,0,0,0,,14.98,5.25,20.81,0.07,0.892,1.276,2.168,0.411439114,2.052,108,37,0,0,0,0,21,0,620,769,0,0,0,0,0,0,0,0,0,,11.0403144,662.4188639,15898.05273,9536.195114,256.4202054,0,0,728.4857762,6847.766296,2175.162401,9135.682086,0,43.07298769,57.46415765,0.87047723,2,0,0,0,0,0,0,0,0,0,0,0,0,0,0,0,0,0,0,0,0,0,0,0,0,0,0,0,0,0,0,0,0,10.47330702,00:04:53,0,0,0,E 000°00.000,N 00°00.000,0,0,0,97,58,0,22.75330588,0,115,1.750767782,20.02808506,0,0,0
,,,,,,,,,00:04:59,27.59889604,2.020225031,55.75598063,2264.118258,1956.636631,325.1124382,86.17315253,24.62591362,28.49582786,36.51803641,0.864193654,16.09288238,4.265522463,120,18.86765215,0,0,0,0,,14.94,5.25,20.81,0.07,0.93,1.244,2.174,0.427782889,2.048,107,37,0,0,0,0,21,0,622,769,0,0,0,0,0,0,0,0,0,,10.98099064,658.8594387,15812.62653,9484.953558,255.0423633,0,0,760.9376324,7152.813744,2082.081497,8744.742287,0,45.23482378,55.3022755,0.864193654,2,0,0,0,0,0,0,0,0,0,0,0,0,0,0,0,0,0,0,0,0,0,0,0,0,0,0,0,0,0,0,0,0,10.43372469,00:04:55,0,0,0,E 000°00.000,N 00°00.000,0,0,0,97,58,0,23.12032763,0,116,1.746291459,20.02808506,0,0,0
,,,,,,,,,00:05:00,27.59889604,2.065096259,56.99437697,2308.342422,1998.379484,332.5569827,87.80483352,24.69060761,28.52029728,37.23132939,0.865720556,16.1037037,4.251851852,120,19.23618685,0,0,0,0,,14.95,5.27,20.81,0.06,0.932,1.242,2.174,0.428702852,2.047,107,38,0,0,0,0,21,0,624,769,0,0,0,0,0,0,0,0,0,,11.19983812,671.9902872,16127.76689,9673.985514,260.1252725,0,0,767.0788775,7210.541448,2143.77366,9003.849372,0,44.70886451,55.82824598,0.865720556,1,0,0,0,0,0,0,0,0,0,0,0,0,0,0,0,0,0,0,0,0,0,0,0,0,0,0,0,0,0,0,0,0,10.63752268,00:04:56,0,0,0,E 000°00.000,N 00°00.000,0,0,0,99,57,0,23.30516787,0,117,1.755832011,20.02808506,0,0,0
,,,,,,,,,00:05:02,30.67484663,2.078353667,63.75317996,2569.869144,2218.142857,335.2084643,87.90681358,24.80794795,28.74169252,41.44950233,0.863134554,16.12855741,4.229636899,120,21.4155762,0,0,0,0,,14.99,5.23,20.81,0.07,0.916,1.04,1.956,0.468302658,2.059,108,37,0,0,0,0,21,0,626,769,0,0,0,0,0,0,0,0,0,,12.46051795,747.631077,17943.14585,10762.91183,289.4055782,0,0,870.4312384,8182.053641,2347.015076,9857.463318,0,45.59988371,54.93720779,0.863134554,2,0,0,0,0,0,0,0,0,0,0,0,0,0,0,0,0,0,0,0,0,0,0,0,0,0,0,0,0,0,0,0,0,11.84271495,00:04:58,0,0,0,E 000°00.000,N 00°00.000,0,0,0,110,52,0,23.69950714,0,118,1.804501852,20.02808506,0,0,0
,,,,,,,,,00:05:04,36.31961259,1.651057206,59.9657581,2434.483586,2068.440525,265.9640021,69.24446221,24.63181862,28.99080606,39.26586428,0.84964242,16.10870908,4.193946881,119,20.45784526,0,0,0,0,,15.07,5.16,20.81,0.07,0.792,0.86,1.652,0.479418886,1.654,108,37,0,0,0,0,21,0,628,769,0,0,0,0,0,0,0,0,0,,11.76344337,705.8066019,16939.35845,10160.80585,273.2154588,0,0,905.8548243,8515.035348,2027.449073,8515.286106,0,50.26775586,50.26923619,0.84964242,2,0,0,0,0,0,0,0,0,0,0,0,0,0,0,0,0,0,0,0,0,0,0,0,0,0,0,0,0,0,0,0,0,11.21881837,00:05:00,0,0,0,E 000°00.000,N 00°00.000,0,0,0,104,55,0,24.10323983,0,119,1.777903329,20.02808506,0,0,0
,,,,,,,,,00:05:05,35.0877193,1.681651225,59.00530614,2382.5559,2036.572604,271.0630052,70.57020302,24.76554953,28.97284684,38.42832096,0.854784815,16.11885992,4.196482717,119,20.02147815,0,0,0,0,,15.06,5.19,20.8,0.07,0.802,0.908,1.71,0.469005848,1.658,108,37,0,0,0,0,21,0,629,769,0,0,0,0,0,0,0,0,0,,11.52768417,691.6610501,16599.8652,9957.166207,267.7397613,0,0,856.2149038,8048.420096,2057.283659,8640.591368,0,48.48485212,52.05217791,0.854784815,1,0,0,0,0,0,0,0,0,0,0,0,0,0,0,0,0,0,0,0,0,0,0,0,0,0,0,0,0,0,0,0,0,10.97952027,00:05:01,0,0,0,E 000°00.000,N 00°00.000,0,0,0,102,56,0,24.29733256,0,120,1.770891068,20.0184608,0,0,0
,,,,,,,,,00:05:07,34.88372093,1.813205505,63.25135483,2481.360171,2147.039436,294.3144594,74.85336563,25.49059809,29.45980115,40.02193824,0.865267147,16.23172103,4.128233971,119,20.85176614,0,0,0,0,,15.12,5.16,20.79,0.07,0.778,0.942,1.72,0.452325581,1.776,109,37,0,0,0,0,21,0,629,769,0,0,0,0,0,0,0,0,0,,12.03791059,722.2746353,17334.59125,10397.87999,279.5901814,0,0,827.3579812,7777.165023,2297.745608,9650.531553,0,44.86500381,55.67210335,0.865267147,2,0,0,0,0,0,0,0,0,0,0,0,0,0,0,0,0,0,0,0,0,0,0,0,0,0,0,0,0,0,0,0,0,11.4348395,00:05:03,0,0,0,E 000°00.000,N 00°00.000,0,0,0,106,52,0,24.69009247,0,121,1.801069832,20.00883654,0,0,0
,,,,,,,,,00:05:09,34.92433062,1.835641119,64.10853733,2473.511596,2158.031635,299.2095024,75.15930581,25.91802579,29.70694974,39.89534832,0.872456648,16.3,4.094444444,120,20.61259663,0,0,0,0,,15.18,5.16,20.79,0.07,0.776,0.942,1.718,0.451688009,1.822,109,37,0,0,0,0,21,0,629,769,0,0,0,0,0,0,0,0,0,,12.02183248,721.3099486,17311.43877,10383.99234,279.2167543,0,0,780.7349657,7338.908678,2396.552424,10065.52018,0,42.3934069,58.14375291,0.872456648,2,0,0,0,0,0,0,0,0,0,0,0,0,0,0,0,0,0,0,0,0,0,0,0,0,0,0,0,0,0,0,0,0,11.39867095,00:05:05,0,0,0,E 000°00.000,N 00°00.000,0,0,0,106,52,0,25.09108819,0,122,1.806915868,20.00883654,0,0,0
,,,,,,,,,00:05:10,34.72222222,1.866235138,64.79983116,2426.304018,2147.907785,306.4500868,75.26128587,26.70721834,30.16881433,39.13393577,0.88525913,16.42076503,4.032786885,120,20.21920015,0,0,0,0,,15.29,5.11,20.79,0.07,0.78,0.948,1.728,0.451388889,1.882,110,36,0,0,0,0,21,0,629,769,0,0,0,0,0,0,0,0,0,,11.83081742,709.8490453,17036.37709,10219.00095,274.7802756,0,0,688.9666907,6476.286892,2536.099681,10651.61866,0,38.01446082,62.5227923,0.88525913,1,0,0,0,0,0,0,0,0,0,0,0,0,0,0,0,0,0,0,0,0,0,0,0,0,0,0,0,0,0,0,0,0,11.18112451,00:05:06,0,0,0,E 000°00.000,N 00°00.000,0,0,0,104,51,0,25.28986027,0,123,1.811573874,20.00883654,0,0,0
,,,,,,,,,00:05:13,33.48214286,1.92028457,64.29524232,2391.416932,2149.823209,315.8322525,77.91276749,26.88583553,29.90722309,38.57124084,0.898974654,16.44715879,4.057355284,120,19.92847443,0,0,0,0,,15.33,5.13,20.8,0.06,0.802,0.99,1.792,0.447544643,1.918,110,37,0,0,0,0,21,0,629,769,0,0,0,0,0,0,0,0,0,,11.70127873,702.0767238,16849.84137,10107.11045,271.771635,0,0,597.8933586,5620.19757,2695.282578,11320.18683,0,33.35460226,67.18275013,0.898974654,3,0,0,0,0,0,0,0,0,0,0,0,0,0,0,0,0,0,0,0,0,0,0,0,0,0,0,0,0,0,0,0,0,11.02035452,00:05:09,0,0,0,E 000°00.000,N 00°00.000,0,0,0,102,52,0,25.87816267,0,124,1.808178837,20.0184608,0,0,0
,,,,,,,,,00:05:14,35.00583431,1.585789967,55.51190081,1980.431262,1812.55927,262.2927199,63.3296186,28.03020831,30.62625412,31.94243971,0.915234628,16.54019293,3.993569132,121,16.36720051,0,0,0,0,,15.46,5.05,20.73,0.09,0.706,1.008,1.714,0.411901984,1.613,111,36,0,0,0,0,21,0,629,769,0,0,0,0,0,0,0,0,0,,9.730146419,583.8087851,14011.41084,8404.522859,225.9904975,0,0,415.4512859,3905.242087,2424.160898,10181.47577,0,27.87186909,72.66560011,0.915234628,1,0,0,0,0,0,0,0,0,0,0,0,0,0,0,0,0,0,0,0,0,0,0,0,0,0,0,0,0,0,0,0,0,9.126411346,00:05:10,0,0,0,E 000°00.000,N 00°00.000,0,0,0,84,58,0,26.05675788,0,125,1.744386099,19.95109098,0,0,0
,,,,,,,,,00:05:15,36.63003663,1.46035449,53.49283847,2023.429941,1812.589473,238.1234451,60.47417686,26.43671391,29.51183335,32.6359668,0.895800461,16.30586592,4.141061453,121,16.7225615,0,0,0,0,,15.23,5.19,20.73,0.09,0.67,0.968,1.638,0.409035409,1.461,109,37,0,0,0,0,21,0,629,769,0,0,0,0,0,0,0,0,0,,9.892761787,593.5657072,14245.57697,8544.983703,229.7673705,0,0,521.7846679,4904.775879,2242.225423,9417.346778,0,34.43016656,66.10716292,0.895800461,1,0,0,0,0,0,0,0,0,0,0,0,0,0,0,0,0,0,0,0,0,0,0,0,0,0,0,0,0,0,0,0,0,9.324561942,00:05:11,0,0,0,E 000°00.000,N 00°00.000,0,0,0,86,60,0,26.22028212,0,126,1.728295643,19.95109098,0,0,0
,,,,,,,,,00:05:17,36.31961259,1.553156347,56.41003681,2211.898207,1940.259244,251.1768931,65.26723978,25.50299857,29.07345345,35.67577754,0.877191924,16.17202889,4.202232436,121,18.28015047,0,0,0,0,,15.13,5.19,20.74,0.09,0.68,0.972,1.652,0.411622276,1.555,109,37,0,0,0,0,21,0,629,769,0,0,0,0,0,0,0,0,0,,10.76328781,645.7972684,15499.13444,9296.910295,249.9860394,0,0,672.2410597,6319.065961,2205.554515,9263.328961,0,40.77044422,59.76675018,0.877191924,2,0,0,0,0,0,0,0,0,0,0,0,0,0,0,0,0,0,0,0,0,0,0,0,0,0,0,0,0,0,0,0,0,10.1930793,00:05:13,0,0,0,E 000°00.000,N 00°00.000,0,0,0,94,58,0,26.56454961,0,127,1.751356383,19.96071524,0,0,0
,,,,,,,,,00:05:19,33.93665158,1.763235275,59.83830118,2326.450376,2042.065839,285.6461541,73.52762482,25.72085861,29.3028266,37.52339315,0.877760325,16.20011567,4.170040486,122,19.06926537,0,0,0,0,,15.12,5.2,20.73,0.09,0.74,1.028,1.768,0.418552036,1.742,109,37,0,0,0,0,21,0,629,769,0,0,0,0,0,0,0,0,0,,11.32234431,679.3406588,16304.17581,9779.801609,262.9705776,0,0,703.7835039,6615.564937,2327.665873,9776.196668,0,40.57589303,59.96130551,0.877760325,2,0,0,0,0,0,0,0,0,0,0,0,0,0,0,0,0,0,0,0,0,0,0,0,0,0,0,0,0,0,0,0,0,10.72096947,00:05:15,0,0,0,E 000°00.000,N 00°00.000,0,0,0,99,55,0,26.93264348,0,128,1.776979255,19.95109098,0,0,0
,,,,,,,,,00:05:21,36.23188406,1.662275013,60.22735555,2355.607099,2040.7385,269.023404,68.83654196,25.56765751,29.51252968,37.9936629,0.866332293,16.18404908,4.141104294,122,19.30825491,0,0,0,0,,15.1,5.18,20.73,0.09,0.71,0.946,1.656,0.428743961,1.645,109,37,0,0,0,0,21,0,630,769,0,0,0,0,0,0,0,0,0,,11.43094397,685.8566381,16460.55931,9873.605776,265.4928922,0,0,779.2193944,7324.662307,2196.26408,9224.309134,0,44.49825895,56.03885602,0.866332293,2,0,0,0,0,0,0,0,0,0,0,0,0,0,0,0,0,0,0,0,0,0,0,0,0,0,0,0,0,0,0,0,0,10.85533226,00:05:17,0,0,0,E 000°00.000,N 00°00.000,0,0,0,101,55,0,27.31186495,0,129,1.779793795,19.95109098,0,0,0
,,,,,,,,,00:05:23,34.68208092,2.006967623,69.60581353,2692.262536,2343.648924,327.1520394,81.99196998,25.85402151,29.69976127,43.4235893,0.870512772,16.30081301,4.085365854,122,22.06772571,0,0,0,0,,15.17,5.16,20.8,0.06,0.814,0.916,1.73,0.470520231,2.018,109,37,0,0,0,0,21,0,630,769,0,0,0,0,0,0,0,0,0,,13.07853837,784.7123021,18833.09525,11296.73388,303.7596008,0,0,862.7316551,8109.677558,2577.280675,10824.57884,0,43.06077917,57.47636642,0.870512772,2,0,0,0,0,0,0,0,0,0,0,0,0,0,0,0,0,0,0,0,0,0,0,0,0,0,0,0,0,0,0,0,0,12.4067398,00:05:19,0,0,0,E 000°00.000,N 00°00.000,0,0,0,115,48,0,27.72035633,0,130,1.842645514,20.0184608,0,0,0
,,,,,,,,,00:05:24,34.44316877,2.012066626,69.30195039,2563.586402,2286.32115,331.5371821,80.56424911,27.03320252,30.31155549,41.34816778,0.891844779,16.47744551,4.004054739,122,21.0130033,0,0,0,0,,15.45,5.01,20.8,0.06,0.83,0.912,1.742,0.476463835,2.054,111,36,0,0,0,0,21,0,630,769,0,0,0,0,0,0,0,0,0,,12.52109945,751.2659669,18030.38321,10815.23977,290.8126324,0,0,686.1702155,6450.000026,2780.300139,11677.26059,0,35.77295032,64.76435055,0.891844779,1,0,0,0,0,0,0,0,0,0,0,0,0,0,0,0,0,0,0,0,0,0,0,0,0,0,0,0,0,0,0,0,0,11.81376222,00:05:20,0,0,0,E 000°00.000,N 00°00.000,0,0,0,109,48,0,27.93368664,0,131,1.840745457,20.0184608,0,0,0
,,,,,,,,,00:05:26,34.68208092,1.911106365,66.2811456,2371.15653,2164.922387,317.2599734,75.77118619,27.95308735,30.6159454,38.24446016,0.913023818,16.60085379,3.964781217,123,19.27769536,0,0,0,0,,15.57,4.98,20.8,0.06,0.814,0.916,1.73,0.470520231,1.956,112,35,0,0,0,0,21,0,630,769,0,0,0,0,0,0,0,0,0,,11.64335183,698.6011099,16766.42664,10057.07545,270.4262361,0,0,510.3897181,4797.66335,2871.160717,12058.87501,0,28.61470398,71.9227494,0.913023818,2,0,0,0,0,0,0,0,0,0,0,0,0,0,0,0,0,0,0,0,0,0,0,0,0,0,0,0,0,0,0,0,0,10.92698862,00:05:22,0,0,0,E 000°00.000,N 00°00.000,0,0,0,101,50,0,28.33642749,0,132,1.821390006,20.0184608,0,0,0
,,,,,,,,,00:05:28,36.05769231,1.692869032,61.04095067,2214.112766,2022.000445,280.0372507,68.22466159,27.56903425,30.18839626,35.71149622,0.91323282,16.54216867,4.030120482,123,18.00091679,0,0,0,0,,15.53,5.03,20.8,0.07,0.778,0.886,1.664,0.467548077,1.745,112,36,0,0,0,0,21,0,630,769,0,0,0,0,0,0,0,0,0,,10.87277492,652.3664951,15656.79588,9391.481013,252.5289658,0,0,475.440986,4469.145268,2683.761625,11271.79883,0,28.54444359,71.99301128,0.91323282,2,0,0,0,0,0,0,0,0,0,0,0,0,0,0,0,0,0,0,0,0,0,0,0,0,0,0,0,0,0,0,0,0,10.20328463,00:05:24,0,0,0,E 000°00.000,N 00°00.000,0,0,0,94,54,0,28.71169627,0,133,1.785621289,20.0184608,0,0,0
,,,,,,,,,00:05:30,32.01707577,1.943739985,62.23287038,2273.817413,2101.845561,320.9312556,79.64642855,27.36933494,29.60867894,36.67447441,0.924368662,16.51101784,4.097586569,122,18.63784765,0,0,0,0,,15.46,5.11,20.81,0.06,0.846,1.028,1.874,0.451440768,1.96,111,36,0,0,0,0,21,0,630,769,0,0,0,0,0,0,0,0,0,,11.1972866,671.8371959,16124.0927,9671.781608,260.0660113,0,0,425.5997294,4000.637456,2907.173283,12210.12779,0,24.81155083,75.72598357,0.924368662,2,0,0,0,0,0,0,0,0,0,0,0,0,0,0,0,0,0,0,0,0,0,0,0,0,0,0,0,0,0,0,0,0,10.47842126,00:05:26,0,0,0,E 000°00.000,N 00°00.000,0,0,0,97,53,0,29.07953063,0,134,1.794019832,20.02808506,0,0,0
,,,,,,,,,00:05:32,33.14917127,1.871334141,62.03317593,2305.822953,2121.255336,307.4698874,77.81078743,26.90283564,29.24361574,37.1906928,0.919955859,16.43051771,4.158038147,122,18.90018814,0,0,0,0,,15.36,5.14,20.8,0.07,0.848,0.962,1.81,0.468508287,1.88,110,37,0,0,0,0,21,0,630,769,0,0,0,0,0,0,0,0,0,,11.34230944,680.5385663,16332.92559,9797.046709,263.4342837,0,0,456.7709348,4293.646787,2887.397323,12127.06876,0,26.28828965,74.24921329,0.919955859,2,0,0,0,0,0,0,0,0,0,0,0,0,0,0,0,0,0,0,0,0,0,0,0,0,0,0,0,0,0,0,0,0,10.62591223,00:05:28,0,0,0,E 000°00.000,N 00°00.000,0,0,0,98,53,0,29.45519057,0,135,1.792624016,20.0184608,0,0,0
,,,,,,,,,00:05:36,24.69135802,2.104868483,51.97206131,2095.130518,1907.476269,338.2678662,93.61769706,24.80612108,27.24650479,33.79242771,0.910433146,16.07073643,4.447674419,122,17.17320097,0,0,0,0,,15.01,5.41,20.8,0.06,0.888,1.542,2.43,0.365432099,2.06,108,39,0,0,0,0,21,0,630,769,0,0,0,0,0,0,0,0,0,,10.28123663,616.874198,14804.98075,8880.5332,238.7900121,0,0,464.407423,4365.429777,2504.551928,10519.1181,0,29.48622392,71.05121088,0.910433146,4,0,0,0,0,0,0,0,0,0,0,0,0,0,0,0,0,0,0,0,0,0,0,0,0,0,0,0,0,0,0,0,0,9.654979346,00:05:32,0,0,0,E 000°00.000,N 00°00.000,0,0,0,89,61,0,30.17597544,0,136,1.715769942,20.0184608,0,0,0
,,,,,,,,,00:05:38,25.16778523,1.969235,49.56128357,2084.850789,1862.367441,312.7728506,89.84443476,23.77210102,26.61197918,33.62662563,0.893285721,15.8829622,4.5624029,122,17.0889409,0,0,0,0,,14.7,5.58,20.8,0.07,0.854,1.53,2.384,0.358221477,1.947,106,40,0,0,0,0,21,0,630,769,0,0,0,0,0,0,0,0,0,,10.18656936,611.1941615,14668.65988,8798.763282,236.5912883,0,0,550.5975378,5175.616856,2279.01414,9571.859388,0,35.28350169,65.2538096,0.893285721,2,0,0,0,0,0,0,0,0,0,0,0,0,0,0,0,0,0,0,0,0,0,0,0,0,0,0,0,0,0,0,0,0,9.607607324,00:05:34,0,0,0,E 000°00.000,N 00°00.000,0,0,0,89,63,0,30.51710554,0,137,1.695142545,20.0184608,0,0,0
,,,,,,,,,00:05:41,24.17405318,2.224185156,53.76757024,2257.353156,2008.32265,353.5648755,100.6543214,23.81885622,26.77237656,36.40892186,0.889680308,15.89637781,4.525447043,122,18.50289472,0,0,0,0,,14.64,5.58,20.8,0.06,0.906,1.576,2.482,0.365028203,2.207,105,40,0,0,0,0,21,0,630,769,0,0,0,0,0,0,0,0,0,,11.0193474,661.160844,15867.86026,9518.084634,255.9332299,0,0,616.2947374,5793.170531,2419.034616,10159.94539,0,36.50883256,64.02845263,0.889680308,3,0,0,0,0,0,0,0,0,0,0,0,0,0,0,0,0,0,0,0,0,0,0,0,0,0,0,0,0,0,0,0,0,10.4025491,00:05:37,0,0,0,E 000°00.000,N 00°00.000,0,0,0,96,59,0,31.04725345,0,138,1.730520411,20.0184608,0,0,0
,,,,,,,,,00:05:43,23.69668246,2.076314066,49.20175511,2170.871136,1869.207886,325.3163983,95.75927837,22.6645213,26.32224884,35.01405058,0.861040462,15.66797642,4.611984283,122,17.79402571,0,0,0,0,,14.47,5.62,20.79,0.07,1.064,1.468,2.532,0.420221169,2.051,104,40,0,0,0,0,21,0,630,769,0,0,0,0,0,0,0,0,0,,10.52027392,631.2164352,15149.19445,9087.004332,244.3418459,0,0,746.5373637,7017.451219,1955.501412,8213.105931,0,46.32227307,54.21480304,0.861040462,2,0,0,0,0,0,0,0,0,0,0,0,0,0,0,0,0,0,0,0,0,0,0,0,0,0,0,0,0,0,0,0,0,10.00401445,00:05:39,0,0,0,E 000°00.000,N 00°00.000,0,0,0,93,63,0,31.40624714,0,139,1.691980595,20.00883654,0,0,0
,,,,,,,,,00:05:44,23.82843527,2.103848682,50.13142214,2252.582105,1909.680494,328.17184,97.2889793,22.25509207,26.25120919,36.33196943,0.847773979,15.59864275,4.624333495,122,18.46378774,0,0,0,0,,14.35,5.66,20.8,0.07,1.042,1.476,2.518,0.413820492,2.044,103,40,0,0,0,0,21,0,630,769,0,0,0,0,0,0,0,0,0,,10.87928771,652.7572625,15666.1743,9397.106509,252.6802306,0,0,848.5852928,7976.701752,1850.856308,7773.596492,0,50.91671776,49.62026046,0.847773979,1,0,0,0,0,0,0,0,0,0,0,0,0,0,0,0,0,0,0,0,0,0,0,0,0,0,0,0,0,0,0,0,0,10.38056269,00:05:40,0,0,0,E 000°00.000,N 00°00.000,0,0,0,96,62,0,31.58457682,0,140,1.700110025,20.0184608,0,0,0
,,,,,,,,,00:05:46,29.73240833,2.189511935,65.09946287,2647.475682,2257.09106,352.2391347,92.29195626,24.58925811,28.84219606,42.70122068,0.852544586,16.08756404,4.215183978,122,21.70062034,0,0,0,0,,14.74,5.36,20.8,0.07,1.048,0.97,2.018,0.519326065,2.187,106,38,0,0,0,0,21,0,630,769,0,0,0,0,0,0,0,0,0,,12.80212719,768.1276317,18435.06316,11057.98063,297.3397284,0,0,966.0949654,9081.292675,2250.659348,9452.769263,0,49.26097945,51.27603405,0.852544586,2,0,0,0,0,0,0,0,0,0,0,0,0,0,0,0,0,0,0,0,0,0,0,0,0,0,0,0,0,0,0,0,0,12.20034877,00:05:42,0,0,0,E 000°00.000,N 00°00.000,0,0,0,113,51,0,31.97926707,0,141,1.813577405,20.0184608,0,0,0
,,,,,,,,,00:05:48,29.7029703,2.333303822,69.30605413,2697.696369,2349.438697,379.6717714,95.96323849,25.69082827,29.49898383,43.51123176,0.870905534,16.27185315,4.112762238,122,22.11226532,0,0,0,0,,15.11,5.13,20.8,0.06,1.084,0.936,2.02,0.536633663,2.311,109,37,0,0,0,0,21,0,630,769,0,0,0,0,0,0,0,0,0,,13.10624564,786.3747383,18872.99372,11320.66634,304.4031245,0,0,861.8509748,8101.399163,2588.802513,10872.97055,0,42.92588279,57.61126568,0.870905534,2,0,0,0,0,0,0,0,0,0,0,0,0,0,0,0,0,0,0,0,0,0,0,0,0,0,0,0,0,0,0,0,0,12.4317805,00:05:44,0,0,0,E 000°00.000,N 00°00.000,0,0,0,115,48,0,32.41107329,0,142,1.840771173,20.0184608,0,0,0
,,,,,,,,,00:05:50,31.54574132,2.09976948,66.23878485,2502.406116,2202.912115,344.2846899,84.74543166,26.47003795,30.06873692,40.36138896,0.880317588,16.39630889,4.035939777,123,20.34476517,0,0,0,0,,15.27,5.07,20.8,0.06,1.018,0.884,1.902,0.535226078,2.083,110,36,0,0,0,0,21,0,629,769,0,0,0,0,0,0,0,0,0,,12.18659981,731.1959886,17548.70373,10526.31197,283.0436085,0,0,741.1768313,6967.062214,2541.8848,10675.91616,0,39.7012926,60.83592457,0.880317588,2,0,0,0,0,0,0,0,0,0,0,0,0,0,0,0,0,0,0,0,0,0,0,0,0,0,0,0,0,0,0,0,0,11.53182542,00:05:46,0,0,0,E 000°00.000,N 00°00.000,0,0,0,107,50,0,32.83262071,0,143,1.821112357,20.0184608,0,0,0
,,,,,,,,,00:05:51,36.58536585,1.966175598,71.9332536,2573.27217,2329.518164,326.540159,77.30088712,27.95400131,30.87902671,41.50438984,0.905274689,16.60788382,3.93153527,124,20.75219492,0,0,0,0,,15.51,4.96,20.8,0.06,0.794,0.846,1.64,0.484146341,2,111,35,0,0,0,0,21,0,629,769,0,0,0,0,0,0,0,0,0,,12.61115604,756.6693626,18160.0647,10893.02716,292.9042694,0,0,603.241642,5670.471434,2996.948821,12587.18505,0,31.22495171,69.31244605,0.905274689,1,0,0,0,0,0,0,0,0,0,0,0,0,0,0,0,0,0,0,0,0,0,0,0,0,0,0,0,0,0,0,0,0,11.8583971,00:05:47,0,0,0,E 000°00.000,N 00°00.000,0,0,0,110,46,0,33.03926868,0,144,1.856929704,20.0184608,0,0,0
,,,,,,,,,00:05:53,35.46099291,1.989631013,70.55429123,2458.985682,2272.663641,332.4550026,77.81078743,28.69243679,31.04475734,39.66105938,0.92422809,16.70937981,3.910814967,124,19.83052969,0,0,0,0,,15.66,4.91,20.81,0.06,0.814,0.878,1.692,0.48108747,2.045,113,35,0,0,0,0,21,0,629,769,0,0,0,0,0,0,0,0,0,,12.10870979,726.5225872,17436.54209,10459.03359,281.2345499,0,0,461.1138575,4334.470261,3141.856921,13195.79907,0,24.8585427,75.6789907,0.92422809,2,0,0,0,0,0,0,0,0,0,0,0,0,0,0,0,0,0,0,0,0,0,0,0,0,0,0,0,0,0,0,0,0,11.33173125,00:05:49,0,0,0,E 000°00.000,N 00°00.000,0,0,0,105,47,0,33.45126644,0,145,1.848523433,20.02808506,0,0,0
,,,,,,,,,00:05:54,38.61003861,1.654116608,63.86550611,2264.702089,2093.564852,275.0402276,65.98110022,28.20040058,30.50562587,36.52745305,0.924432782,16.62762022,3.988902589,124,18.26372653,0,0,0,0,,15.61,4.93,20.8,0.07,0.734,0.82,1.554,0.472329472,1.691,112,35,0,0,0,0,21,0,629,769,0,0,0,0,0,0,0,0,0,,11.15257832,669.1546993,16059.71278,9633.164334,259.0276255,0,0,423.5342187,3981.221656,2896.385162,12164.81768,0,24.79011742,75.74741744,0.924432782,1,0,0,0,0,0,0,0,0,0,0,0,0,0,0,0,0,0,0,0,0,0,0,0,0,0,0,0,0,0,0,0,0,10.43641516,00:05:50,0,0,0,E 000°00.000,N 00°00.000,0,0,0,97,52,0,33.64511051,0,146,1.805266358,20.0184608,0,0,0
,,,,,,,,,00:05:56,38.41229193,1.55825535,59.8561594,2143.968764,1970.303975,258.5194576,62.41179804,27.91839154,30.3791497,34.58014135,0.918998452,16.59031414,4.005235602,125,17.15175011,0,0,0,0,,15.46,5.06,20.8,0.07,0.696,0.866,1.562,0.445582586,1.612,111,36,0,0,0,0,21,0,629,769,0,0,0,0,0,0,0,0,0,,10.54361191,632.6167147,15182.80115,9107.162783,244.8838896,0,0,429.7882193,4040.009261,2672.475918,11224.39886,0,26.6091166,73.92837951,0.918998452,2,0,0,0,0,0,0,0,0,0,0,0,0,0,0,0,0,0,0,0,0,0,0,0,0,0,0,0,0,0,0,0,0,9.880040386,00:05:52,0,0,0,E 000°00.000,N 00°00.000,0,0,0,91,55,0,34.00671368,0,147,1.777108847,20.0184608,0,0,0
,,,,,,,,,00:05:57,39.0625,1.498087113,58.51902786,2182.295215,1968.349328,246.1798701,61.29001736,26.81535818,29.73000118,35.19830993,0.901962903,16.43294758,4.091218516,125,17.45836172,0,0,0,0,,15.3,5.12,20.8,0.07,0.696,0.84,1.536,0.453125,1.526,110,36,0,0,0,0,21,0,630,769,0,0,0,0,0,0,0,0,0,,10.68610633,641.1663797,15387.99311,9230.24393,248.1934373,0,0,529.471664,4977.033642,2498.488223,10493.65053,0,32.34361756,68.19375638,0.901962903,1,0,0,0,0,0,0,0,0,0,0,0,0,0,0,0,0,0,0,0,0,0,0,0,0,0,0,0,0,0,0,0,0,10.05665998,00:05:53,0,0,0,E 000°00.000,N 00°00.000,0,0,0,93,56,0,34.183628,0,148,1.767297103,20.0184608,0,0,0
,,,,,,,,,00:05:59,38.70967742,1.496047512,57.91151659,2211.367899,1977.01961,244.2422489,62.10585786,26.1880968,29.29233291,35.66722417,0.894025644,16.32583504,4.151329243,125,17.69094319,0,0,0,0,,15.14,5.23,20.79,0.07,0.67,0.88,1.55,0.432258065,1.486,109,37,0,0,0,0,21,0,630,769,0,0,0,0,0,0,0,0,0,,10.80675528,648.405317,15561.72761,9334.455814,250.9956066,0,0,579.9608968,5451.63243,2427.074031,10193.71093,0,35.03230854,65.5050081,0.894025644,2,0,0,0,0,0,0,0,0,0,0,0,0,0,0,0,0,0,0,0,0,0,0,0,0,0,0,0,0,0,0,0,0,10.19063548,00:05:55,0,0,0,E 000°00.000,N 00°00.000,0,0,0,94,56,0,34.54184236,0,149,1.762764938,20.00883654,0,0,0
,,,,,,,,,00:06:00,38.41229193,1.549077144,59.50360349,2324.993888,2049.084947,251.4828333,64.85931953,25.59301502,29.03911015,37.49990142,0.881329176,16.23436471,4.186965109,125,18.5999511,0,0,0,0,,15.04,5.29,20.79,0.07,0.662,0.9,1.562,0.423815621,1.549,108,38,0,0,0,0,21,0,630,769,0,0,0,0,0,0,0,0,0,,11.32551997,679.5311982,16308.74876,9782.544618,263.0443348,0,0,682.8097598,6418.411742,2375.702765,9977.951615,0,39.35563566,61.18158887,0.881329176,1,0,0,0,0,0,0,0,0,0,0,0,0,0,0,0,0,0,0,0,0,0,0,0,0,0,0,0,0,0,0,0,0,10.71425755,00:05:56,0,0,0,E 000°00.000,N 00°00.000,0,0,0,99,55,0,34.72627798,0,150,1.774543267,20.00883654,0,0,0
,,,,,,,,,00:06:02,37.22084367,1.588849368,59.13831396,2324.955606,2048.159844,257.499657,66.89892078,25.43631965,28.87387629,37.49928397,0.880945786,16.20667522,4.210526316,126,18.45202862,0,0,0,0,,15.01,5.33,20.79,0.07,0.704,0.908,1.612,0.436724566,1.62,108,38,0,0,0,0,21,0,630,769,0,0,0,0,0,0,0,0,0,,11.32423087,679.4538525,16306.89246,9781.431148,263.0143945,0,0,685.0042911,6439.040336,2370.346737,9955.456296,0,39.48661802,61.05060373,0.880945786,2,0,0,0,0,0,0,0,0,0,0,0,0,0,0,0,0,0,0,0,0,0,0,0,0,0,0,0,0,0,0,0,0,10.71408113,00:05:58,0,0,0,E 000°00.000,N 00°00.000,0,0,0,99,55,0,35.10377383,0,151,1.771868939,20.00883654,0,0,0
,,,,,,,,,00:06:04,36.31961259,1.695928434,61.5954637,2436.256551,2154.300167,274.3263672,72.09990395,25.28283143,28.59186693,39.2944605,0.884266547,16.17558629,4.251352977,126,19.33536945,0,0,0,0,,15.06,5.31,20.79,0.07,0.748,0.904,1.652,0.452784504,1.702,108,38,0,0,0,0,21,0,630,769,0,0,0,0,0,0,0,0,0,,11.87635533,712.5813195,17101.95167,10258.33482,275.8379301,0,0,697.776871,6559.102587,2532.078242,10634.72862,0,38.35294775,62.18429815,0.884266547,2,0,0,0,0,0,0,0,0,0,0,0,0,0,0,0,0,0,0,0,0,0,0,0,0,0,0,0,0,0,0,0,0,11.22698871,00:06:00,0,0,0,E 000°00.000,N 00°00.000,0,0,0,104,54,0,35.49045027,0,152,1.789548729,20.00883654,0,0,0
,,,,,,,,,00:06:07,30.36437247,2.186452533,66.39025909,2491.264158,2276.755033,358.4599185,91.17017557,26.649225,29.16003616,40.18167997,0.913895472,16.39458955,4.169776119,126,19.77193776,0,0,0,0,,15.12,5.33,20.8,0.07,0.862,1.114,1.976,0.436234818,2.198,109,38,0,0,0,0,21,0,630,769,0,0,0,0,0,0,0,0,0,,12.23581576,734.1489454,17619.57469,10568.82279,284.1866886,0,0,530.8689505,4990.168135,3029.548727,12724.10465,0,28.32172866,72.21573096,0.913895472,3,0,0,0,0,0,0,0,0,0,0,0,0,0,0,0,0,0,0,0,0,0,0,0,0,0,0,0,0,0,0,0,0,11.48047999,00:06:03,0,0,0,E 000°00.000,N 00°00.000,0,0,0,106,50,0,36.09325454,0,153,1.822104364,20.0184608,0,0,0
,,,,,,,,,00:06:09,30.03003003,2.212967349,66.45547594,2442.633341,2269.632477,364.272782,91.68007588,27.20648852,29.28028067,39.39731195,0.929174444,16.46082949,4.142857143,126,19.38597889,0,0,0,0,,15.26,5.27,20.79,0.06,0.888,1.11,1.998,0.444444444,2.215,110,38,0,0,0,0,21,0,630,769,0,0,0,0,0,0,0,0,0,,12.04313204,722.5879221,17342.11013,10402.39007,279.7114537,0,0,428.1474391,4024.585927,3193.0357,13410.74994,0,23.20701401,77.33055458,0.929174444,2,0,0,0,0,0,0,0,0,0,0,0,0,0,0,0,0,0,0,0,0,0,0,0,0,0,0,0,0,0,0,0,0,11.25637484,00:06:05,0,0,0,E 000°00.000,N 00°00.000,0,0,0,104,50,0,36.49790367,0,154,1.822530773,20.00883654,0,0,0
,,,,,,,,,00:06:10,30.21148036,2.164016919,65.37815465,2368.761103,2214.512874,357.4401179,88.9266142,27.600147,29.52258956,38.20582424,0.934882319,16.51743638,4.10933082,126,18.79969129,0,0,0,0,,15.34,5.22,20.79,0.06,0.876,1.11,1.986,0.441087613,2.171,110,37,0,0,0,0,21,0,630,769,0,0,0,0,0,0,0,0,0,,11.69563816,701.7382894,16841.71895,10102.23834,271.6406282,0,0,381.7390391,3588.346967,3177.122521,13343.91459,0,21.30629883,79.23131024,0.934882319,1,0,0,0,0,0,0,0,0,0,0,0,0,0,0,0,0,0,0,0,0,0,0,0,0,0,0,0,0,0,0,0,0,10.91594978,00:06:06,0,0,0,E 000°00.000,N 00°00.000,0,0,0,101,51,0,36.69572676,0,155,1.815432658,20.00883654,0,0,0
,,,,,,,,,00:06:12,30.09027081,2.170135723,65.2999716,2371.176465,2215.458264,358.2559584,89.53849458,27.53906028,29.47470177,38.24478169,0.934328717,16.50845865,4.12593985,126,18.81886083,0,0,0,0,,15.37,5.24,20.79,0.07,0.858,1.136,1.994,0.430290873,2.169,110,37,0,0,0,0,21,0,630,769,0,0,0,0,0,0,0,0,0,,11.70594009,702.3564051,16856.55372,10111.13675,271.8798988,0,0,385.3768668,3622.542548,3172.531637,13324.63288,0,21.49041024,79.04719491,0.934328717,2,0,0,0,0,0,0,0,0,0,0,0,0,0,0,0,0,0,0,0,0,0,0,0,0,0,0,0,0,0,0,0,0,10.92708048,00:06:08,0,0,0,E 000°00.000,N 00°00.000,0,0,0,101,51,0,37.08575306,0,156,1.814912992,20.00883654,0,0,0
,,,,,,,,,00:06:14,30.39513678,2.153818913,65.46562045,2363.825241,2204.484842,356.1143771,88.21275377,27.69478019,29.69656185,38.12621356,0.932592141,16.53409091,4.095643939,126,18.76051779,0,0,0,0,,15.41,5.18,20.79,0.07,0.852,1.122,1.974,0.431610942,2.19,111,37,0,0,0,0,21,0,630,769,0,0,0,0,0,0,0,0,0,,11.66457099,699.8742591,16796.98222,10075.40373,270.9190681,0,0,394.3408474,3706.803966,3138.208959,13180.47763,0,22.06827344,78.4693194,0.932592141,2,0,0,0,0,0,0,0,0,0,0,0,0,0,0,0,0,0,0,0,0,0,0,0,0,0,0,0,0,0,0,0,0,10.89320388,00:06:10,0,0,0,E 000°00.000,N 00°00.000,0,0,0,101,51,0,37.47526158,0,157,1.816013288,20.00883654,0,0,0
,,,,,,,,,00:06:16,35.29411765,1.773433281,62.59176286,2348.435926,2137.078588,290.6431772,73.62960488,26.65253165,29.28847036,37.87799881,0.910000807,16.38872915,4.151811386,127,18.49162147,0,0,0,0,,15.39,5.17,20.79,0.07,0.752,0.948,1.7,0.442352941,1.792,111,37,0,0,0,0,21,0,630,769,0,0,0,0,0,0,0,0,0,,11.52300245,691.380147,16593.12353,9953.12232,267.6310246,0,0,523.0677956,4916.837279,2801.300704,11765.46296,0,29.6317765,70.9056552,0.910000807,2,0,0,0,0,0,0,0,0,0,0,0,0,0,0,0,0,0,0,0,0,0,0,0,0,0,0,0,0,0,0,0,0,10.82228537,00:06:12,0,0,0,E 000°00.000,N 00°00.000,0,0,0,100,53,0,37.86172114,0,158,1.796517183,20.00883654,0,0,0
,,,,,,,,,00:06:17,36.10108303,1.801987698,65.05370752,2458.638413,2222.280085,295.0283198,74.85336563,26.4592415,29.27340616,39.65545827,0.90386617,16.37238257,4.15393322,127,19.35935758,0,0,0,0,,15.4,5.12,20.8,0.07,0.746,0.916,1.662,0.448856799,1.86,111,36,0,0,0,0,21,0,630,769,0,0,0,0,0,0,0,0,0,* STEADY *,12.0450723,722.7043383,17344.90412,10404.066,279.756518,0,0,584.9384007,5498.420967,2842.783934,11939.69252,0,31.7004979,68.83688973,0.90386617,1,0,0,0,0,0,0,0,0,0,0,0,0,0,0,0,0,0,0,0,0,0,0,0,0,0,0,0,0,0,0,0,0,11.33013094,00:06:13,0,0,0,E 000°00.000,N 00°00.000,0,0,0,105,51,0,38.05812176,0,159,1.813272053,20.0184608,0,0,0
,,,,,,,,,00:06:18,37.5,1.741819462,65.31822981,2477.075395,2236.138712,284.9322937,72.5078242,26.36909234,29.21027639,39.95282895,0.902733407,16.35831382,4.162763466,127,19.50453067,0,0,0,0,,15.38,5.12,20.8,0.07,0.734,0.866,1.6,0.45875,1.781,111,36,0,0,0,0,21,0,630,769,0,0,0,0,0,0,0,0,0,* STEADY *,12.13192565,727.9155393,17469.97294,10479.08655,281.7737571,0,0,596.2685291,5604.924173,2847.364004,11958.92882,0,32.08318749,68.45419199,0.902733407,1,0,0,0,0,0,0,0,0,0,0,0,0,0,0,0,0,0,0,0,0,0,0,0,0,0,0,0,0,0,0,0,0,11.41509399,00:06:14,0,0,0,E 000°00.000,N 00°00.000,0,0,0,106,51,0,38.25959674,0,160,1.815034406,20.0184608,0,0,0
,,,,,,,,,00:06:20,37.83102144,1.685730428,63.77290394,2400.846602,2173.220312,276.2639884,69.85634258,26.56267331,29.34488676,38.72333228,0.905189157,16.38838475,4.143980641,127,18.90430395,0,0,0,0,,15.36,5.1,20.8,0.07,0.73,0.856,1.586,0.460277427,1.735,110,36,0,0,0,0,21,0,630,769,0,0,0,0,0,0,0,0,0,* STEADY *,11.76587453,705.9524716,16942.85932,10162.90579,273.2719245,0,0,563.3287962,5295.290684,2794.909304,11738.61908,0,31.25381959,69.28357756,0.905189157,2,0,0,0,0,0,0,0,0,0,0,0,0,0,0,0,0,0,0,0,0,0,0,0,0,0,0,0,0,0,0,0,0,11.06380922,00:06:16,0,0,0,E 000°00.000,N 00°00.000,0,0,0,103,52,0,38.65789341,0,161,1.804636193,20.0184608,0,0,0
,,,,,,,,,00:06:22,37.17472119,1.701027437,63.2352207,2434.662045,2181.707937,277.3857691,71.18208339,25.97289461,28.98427403,39.26874265,0.89610299,16.30695444,4.184652278,127,19.17056728,0,0,0,0,,15.26,5.17,20.81,0.06,0.772,0.842,1.614,0.478314746,1.713,110,37,0,0,0,0,21,0,630,769,0,0,0,0,0,0,0,0,0,* STEADY *,11.90422991,714.2537945,17142.09107,10282.4118,276.4853398,0,0,626.0069415,5884.46525,2702.318024,11349.7357,0,34.32758131,66.20975035,0.89610299,2,0,0,0,0,0,0,0,0,0,0,0,0,0,0,0,0,0,0,0,0,0,0,0,0,0,0,0,0,0,0,0,0,11.21964076,00:06:18,0,0,0,E 000°00.000,N 00°00.000,0,0,0,104,52,0,39.05239515,0,162,1.800959039,20.02808506,0,0,0
,,,,,,,,,00:06:24,37.97468354,1.635760197,62.11747584,2400.208538,2135.948494,266.5758825,68.22466159,25.88003286,29.08191654,38.71304093,0.889901215,16.2967581,4.170822943,128,18.7516292,0,0,0,0,,15.25,5.15,20.81,0.06,0.768,0.812,1.58,0.486075949,1.685,110,37,0,0,0,0,21,0,630,769,0,0,0,0,0,0,0,0,0,* STEADY *,11.71735677,703.0414061,16872.99375,10120.99804,272.1450604,0,0,653.9845119,6147.454412,2575.284691,10816.1957,0,36.43369105,64.10359575,0.889901215,2,0,0,0,0,0,0,0,0,0,0,0,0,0,0,0,0,0,0,0,0,0,0,0,0,0,0,0,0,0,0,0,0,11.06086884,00:06:20,0,0,0,E 000°00.000,N 00°00.000,0,0,0,102,53,0,39.44608827,0,163,1.7932138,20.02808506,0,0,0
,,,,,,,,,00:06:25,36.71970624,1.732641256,63.62207795,2455.01136,2182.600612,282.4847722,72.09990395,25.91518678,29.14966558,39.59695743,0.889038905,16.30370806,4.161271336,128,19.17977625,0,0,0,0,,15.2,5.19,20.81,0.06,0.78,0.854,1.634,0.477356181,1.744,109,37,0,0,0,0,21,0,630,769,0,0,0,0,0,0,0,0,0,* STEADY *,11.98227491,718.9364947,17254.47587,10349.82405,278.2979979,0,0,674.1553685,6337.060464,2621.457226,11010.12035,0,36.7270528,63.81022774,0.889038905,1,0,0,0,0,0,0,0,0,0,0,0,0,0,0,0,0,0,0,0,0,0,0,0,0,0,0,0,0,0,0,0,0,11.31341641,00:06:21,0,0,0,E 000°00.000,N 00°00.000,0,0,0,105,52,0,39.6435852,0,164,1.803607849,20.02808506,0,0,0
,,,,,,,,,00:06:27,36.67481663,1.746918465,64.06791436,2472.20373,2195.310187,284.8303136,72.60980426,25.91530528,29.18399174,39.8742537,0.88799728,16.30472855,4.156450671,129,19.16437,0,0,0,0,,15.19,5.18,20.81,0.06,0.788,0.848,1.636,0.481662592,1.781,109,37,0,0,0,0,21,0,630,769,0,0,0,0,0,0,0,0,0,* STEADY *,12.063001,723.7800602,17370.72144,10419.55211,280.1729265,0,0,685.2488915,6441.33958,2624.454776,11022.71006,0,37.08158927,63.45568371,0.88799728,2,0,0,0,0,0,0,0,0,0,0,0,0,0,0,0,0,0,0,0,0,0,0,0,0,0,0,0,0,0,0,0,0,11.39264392,00:06:23,0,0,0,E 000°00.000,N 00°00.000,0,0,0,106,52,0,40.04433979,0,165,1.806640586,20.02808506,0,0,0
,,,,,,,,,00:06:29,34.96503497,1.965155798,68.71174118,2609.928299,2324.766263,321.7470961,80.66622917,26.32706087,29.55640843,42.09561773,0.890739513,16.3725999,4.104826155,129,20.23200232,0,0,0,0,,15.26,5.16,20.81,0.06,0.856,0.86,1.716,0.498834499,1.981,110,37,0,0,0,0,21,0,630,769,0,0,0,0,0,0,0,0,0,,12.74387477,764.632486,18351.17966,11007.66445,295.9867688,0,0,705.7125883,6633.69833,2813.352598,11816.08091,0,36.1486207,64.38867217,0.890739513,2,0,0,0,0,0,0,0,0,0,0,0,0,0,0,0,0,0,0,0,0,0,0,0,0,0,0,0,0,0,0,0,0,12.02731935,00:06:25,0,0,0,E 000°00.000,N 00°00.000,0,0,0,111,48,0,40.45778772,0,166,1.837030954,20.02808506,0,0,0
,,,,,,,,,00:06:30,36.76470588,1.896829156,69.73636604,2585.095711,2320.250505,312.4669105,76.58702668,26.97631881,30.05553318,41.69509211,0.897549168,16.47311828,4.037634409,129,20.03950163,0,0,0,0,,15.37,5.11,20.81,0.06,0.786,0.846,1.632,0.481617647,1.926,110,36,0,0,0,0,21,0,630,769,0,0,0,0,0,0,0,0,0,,12.64439676,758.6638054,18207.93133,10921.7392,293.6763118,0,0,655.4353589,6161.092373,2891.589961,12144.67784,0,33.83740998,66.69993212,0.897549168,1,0,0,0,0,0,0,0,0,0,0,0,0,0,0,0,0,0,0,0,0,0,0,0,0,0,0,0,0,0,0,0,0,11.91288346,00:06:26,0,0,0,E 000°00.000,N 00°00.000,0,0,0,110,48,0,40.66935665,0,167,1.843459313,20.02808506,0,0,0
,,,,,,,,,00:06:31,37.5,1.948838988,73.08146205,2658.12923,2410.4774,322.4609566,78.01474755,27.49357,30.31825232,42.87305209,0.906832284,16.54631083,4.003139717,130,20.44714792,0,0,0,0,,15.47,5.06,20.81,0.06,0.764,0.836,1.6,0.4775,1.963,111,36,0,0,0,0,21,0,630,769,0,0,0,0,0,0,0,0,0,* STEADY *,13.03214716,781.9288297,18766.29191,11256.66295,302.6821276,0,0,612.8884743,5761.151659,3120.474283,13105.99199,0,30.69946735,69.83794161,0.906832284,1,0,0,0,0,0,0,0,0,0,0,0,0,0,0,0,0,0,0,0,0,0,0,0,0,0,0,0,0,0,0,0,0,12.24944345,00:06:27,0,0,0,E 000°00.000,N 00°00.000,0,0,0,114,45,0,40.88332785,0,168,1.863807227,20.02808506,0,0,0
,,,,,,,,,00:06:33,37.78337531,1.934561779,73.09427377,2607.200073,2387.078502,321.543136,76.68900675,28.03554454,30.62080854,42.05161408,0.915571661,16.6209805,3.964153927,130,20.05538518,0,0,0,0,,15.55,5.04,20.81,0.06,0.756,0.832,1.588,0.476070529,1.969,112,36,0,0,0,0,21,0,630,769,0,0,0,0,0,0,0,0,0,* STEADY *,12.81063958,768.638375,18447.321,11065.3333,297.5374355,0,0,544.7591658,5120.736158,3196.603322,13425.73395,0,27.75869818,72.77877343,0.915571661,2,0,0,0,0,0,0,0,0,0,0,0,0,0,0,0,0,0,0,0,0,0,0,0,0,0,0,0,0,0,0,0,0,12.01474688,00:06:29,0,0,0,E 000°00.000,N 00°00.000,0,0,0,111,45,0,41.31404097,0,169,1.863883356,20.02808506,0,0,0
,,,,,,,,,00:06:35,36.23188406,2.092630876,75.81995926,2637.277548,2443.830912,349.7916132,81.88998992,28.74932876,31.02504305,42.53673465,0.926649117,16.71539961,3.913255361,130,20.28675037,0,0,0,0,,15.67,5.02,20.81,0.06,0.776,0.88,1.656,0.468599034,2.136,113,36,0,0,0,0,21,0,630,769,0,0,0,0,0,0,0,0,0,* STEADY *,12.99456525,779.6739149,18712.17396,11224.20116,301.8092574,0,0,478.746575,4500.217805,3407.748467,14312.54356,0,24.04967918,76.48787145,0.926649117,2,0,0,0,0,0,0,0,0,0,0,0,0,0,0,0,0,0,0,0,0,0,0,0,0,0,0,0,0,0,0,0,0,12.15335276,00:06:31,0,0,0,E 000°00.000,N 00°00.000,0,0,0,113,43,0,41.74412771,0,170,1.879783547,20.02808506,0,0,0
,,,,,,,,,00:06:36,39.5256917,1.876433144,74.16731794,2541.887602,2366.836656,314.7104718,72.71178432,29.17804779,31.3360526,40.99818713,0.931133483,16.77173913,3.875,130,19.55298155,0,0,0,0,,15.72,4.94,20.81,0.06,0.692,0.826,1.518,0.455862978,1.933,113,35,0,0,0,0,21,0,630,769,0,0,0,0,0,0,0,0,0,* STEADY *,12.53865397,752.3192379,18055.66171,10830.40268,291.2203502,0,0,433.2214903,4072.282009,3352.486614,14080.44378,0,22.55404468,77.98353782,0.931133483,1,0,0,0,0,0,0,0,0,0,0,0,0,0,0,0,0,0,0,0,0,0,0,0,0,0,0,0,0,0,0,0,0,11.71376775,00:06:32,0,0,0,E 000°00.000,N 00°00.000,0,0,0,109,44,0,41.95690454,0,171,1.870212574,20.02808506,0,0,0
,,,,,,,,,00:06:38,39.21568627,1.934561779,75.86516781,2586.111466,2421.062407,324.6025379,75.15930581,29.33561403,31.33548627,41.71147526,0.936178676,16.77912493,3.885081708,130,19.89316512,0,0,0,0,,15.72,4.94,20.8,0.07,0.696,0.834,1.53,0.454901961,1.983,113,35,0,0,0,0,21,0,630,769,0,0,0,0,0,0,0,0,0,* STEADY *,12.77294165,766.376499,18393.03598,11032.77129,296.6618706,0,0,408.4695996,3839.614236,3488.6443,14652.30606,0,20.87536957,79.66224868,0.936178676,2,0,0,0,0,0,0,0,0,0,0,0,0,0,0,0,0,0,0,0,0,0,0,0,0,0,0,0,0,0,0,0,0,11.91756436,00:06:34,0,0,0,E 000°00.000,N 00°00.000,0,0,0,110,43,0,42.37876447,0,172,1.880042423,20.0184608,0,0,0
,,,,,,,,,00:06:39,39.68253968,1.895809356,75.23052998,2562.326249,2396.621428,318.1777939,73.52762482,29.36024638,31.3902434,41.32784273,0.935330319,16.78321678,3.878429263,130,19.71020192,0,0,0,0,,15.71,4.95,20.8,0.07,0.684,0.828,1.512,0.452380952,1.94,113,35,0,0,0,0,21,0,630,769,0,0,0,0,0,0,0,0,0,* STEADY *,12.65277626,759.1665753,18219.99781,10928.97709,293.8709324,0,0,410.0923201,3854.867809,3443.591176,14463.08294,0,21.15734507,79.38026717,0.935330319,1,0,0,0,0,0,0,0,0,0,0,0,0,0,0,0,0,0,0,0,0,0,0,0,0,0,0,0,0,0,0,0,0,11.80795507,00:06:35,0,0,0,E 000°00.000,N 00°00.000,0,0,0,109,44,0,42.59064545,0,173,1.876394121,20.0184608,0,0,0
,,,,,,,,,00:06:40,41.32231405,1.790769892,73.99875585,2531.587805,2367.771761,300.229303,69.75436252,29.2301755,31.25248686,40.83206138,0.935291186,16.76537585,3.895216401,131,19.32509775,0,0,0,0,,15.67,4.96,20.8,0.07,0.65,0.802,1.452,0.447658402,1.831,113,35,0,0,0,0,21,0,630,769,0,0,0,0,0,0,0,0,0,* STEADY *,12.50086716,750.0520296,18001.24871,10797.76391,290.3427211,0,0,405.417898,3810.928242,3401.689842,14287.09734,0,21.17035492,79.36725705,0.935291186,1,0,0,0,0,0,0,0,0,0,0,0,0,0,0,0,0,0,0,0,0,0,0,0,0,0,0,0,0,0,0,0,0,11.66630325,00:06:36,0,0,0,E 000°00.000,N 00°00.000,0,0,0,108,44,0,42.80025914,0,174,1.869224418,20.0184608,0,0,0
,,,,,,,,,00:06:42,39.4218134,1.887650951,74.41462355,2563.785635,2397.877538,315.9342326,74.03752513,29.02529078,31.03353794,41.35138121,0.935287844,16.73689897,3.922204214,132,19.42261845,0,0,0,0,,15.64,4.98,20.8,0.07,0.682,0.84,1.522,0.448094612,1.924,112,35,0,0,0,0,21,0,630,769,0,0,0,0,0,0,0,0,0,* STEADY *,12.659848,759.59088,18230.18112,10935.08539,294.0351793,0,0,410.5953853,3859.596622,3444.902888,14468.59213,0,21.17146614,79.36614581,0.935287844,2,0,0,0,0,0,0,0,0,0,0,0,0,0,0,0,0,0,0,0,0,0,0,0,0,0,0,0,0,0,0,0,0,11.81468034,00:06:38,0,0,0,E 000°00.000,N 00°00.000,0,0,0,109,44,0,43.2196044,0,175,1.871658289,20.0184608,0,0,0
,,,,,,,,,00:06:44,39.01170351,1.950878589,76.10709711,2643.823608,2477.984385,325.8262986,77.30088712,28.78675297,30.71330779,42.64231626,0.937272962,16.70151594,3.962362781,132,20.02896673,0,0,0,0,,15.59,5.04,20.8,0.07,0.698,0.84,1.538,0.453836151,1.973,112,36,0,0,0,0,21,0,630,769,0,0,0,0,0,0,0,0,0,* STEADY *,13.06156375,783.6938247,18808.65179,11282.07186,303.3653515,0,0,410.4253643,3857.998424,3583.755612,15051.77357,0,20.51182864,80.02579737,0.937272962,2,0,0,0,0,0,0,0,0,0,0,0,0,0,0,0,0,0,0,0,0,0,0,0,0,0,0,0,0,0,0,0,0,12.18351893,00:06:40,0,0,0,E 000°00.000,N 00°00.000,0,0,0,113,43,0,43.64829459,0,176,1.881425157,20.0184608,0,0,0
,,,,,,,,,00:06:46,34.80278422,2.131383299,74.17807306,2538.139043,2399.951066,357.1341777,83.92959116,29.22537805,30.90816063,40.93772649,0.945555396,16.75598086,3.937799043,133,19.0837522,0,0,0,0,,15.58,5.06,20.8,0.07,0.734,0.99,1.724,0.42575406,2.178,112,36,0,0,0,0,21,0,630,769,0,0,0,0,0,0,0,0,0,* STEADY *,12.56544319,753.9265913,18094.23819,10853.54217,291.8425515,0,0,341.9944722,3214.748039,3565.900015,14976.78006,0,17.76669459,82.77098989,0.945555396,2,0,0,0,0,0,0,0,0,0,0,0,0,0,0,0,0,0,0,0,0,0,0,0,0,0,0,0,0,0,0,0,0,11.69649328,00:06:42,0,0,0,E 000°00.000,N 00°00.000,0,0,0,108,44,0,44.07541137,0,177,1.870275547,20.0184608,0,0,0
,,,,,,,,,00:06:48,33.22259136,2.211947548,73.48662951,2573.322119,2431.118261,368.5559447,89.02859427,28.55710483,30.22750093,41.50519546,0.944739193,16.66205625,4.024896266,134,19.20389641,0,0,0,0,,15.46,5.16,20.8,0.07,0.764,1.042,1.806,0.42303433,2.202,111,37,0,0,0,0,21,0,630,769,0,0,0,0,0,0,0,0,0,* STEADY *,12.73702422,764.2214532,18341.31488,11001.74721,295.8276593,0,0,351.9330236,3308.170421,3602.80043,15131.7618,0,18.03671353,82.5009652,0.944739193,2,0,0,0,0,0,0,0,0,0,0,0,0,0,0,0,0,0,0,0,0,0,0,0,0,0,0,0,0,0,0,0,0,11.85862727,00:06:44,0,0,0,E 000°00.000,N 00°00.000,0,0,0,110,45,0,44.49711916,0,178,1.866208329,20.0184608,0,0,0
,,,,,,,,,00:06:50,30.18108652,2.546442152,76.85439091,2648.832523,2530.928732,425.4608193,101.776102,29.01443947,30.36608259,42.72310521,0.955488393,16.70804966,3.996796155,134,19.76740689,0,0,0,0,,15.5,5.15,20.79,0.06,0.844,1.144,1.988,0.424547284,2.589,111,37,0,0,0,0,21,0,630,769,0,0,0,0,0,0,0,0,0,* STEADY *,13.14599461,788.7596766,18930.23224,11354.99996,305.3263264,0,0,291.7956807,2742.879398,3878.369281,16289.15098,0,14.4894123,86.048342,0.955488393,2,0,0,0,0,0,0,0,0,0,0,0,0,0,0,0,0,0,0,0,0,0,0,0,0,0,0,0,0,0,0,0,0,12.20660149,00:06:46,0,0,0,E 000°00.000,N 00°00.000,0,0,0,113,42,0,44.92850281,0,179,1.885668685,20.00883654,0,0,0
,,,,,,,,,00:06:52,32.96703297,2.282313791,75.24111399,2630.802336,2486.991612,380.1816717,91.78205595,28.60006355,30.25386721,42.43229574,0.945335793,16.65773012,4.021447721,134,19.63285325,0,0,0,0,,15.43,5.15,20.79,0.07,0.774,1.046,1.82,0.425274725,2.274,111,37,0,0,0,0,21,0,630,769,0,0,0,0,0,0,0,0,0,* STEADY *,13.02347226,781.4083354,18753.80005,11249.16991,302.480646,0,0,355.9098866,3345.552934,3692.638833,15509.0831,0,17.83933349,82.69834944,0.945335793,2,0,0,0,0,0,0,0,0,0,0,0,0,0,0,0,0,0,0,0,0,0,0,0,0,0,0,0,0,0,0,0,0,12.12351307,00:06:48,0,0,0,E 000°00.000,N 00°00.000,0,0,0,112,44,0,45.36466059,0,180,1.876455217,20.00883654,0,0,0
,,,,,,,,,00:06:53,33.11258278,2.270076184,75.16808555,2644.024649,2492.55446,377.6321702,91.57809582,28.42941936,30.15704842,42.64555885,0.942712263,16.63522013,4.034141959,134,19.73152723,0,0,0,0,,15.41,5.15,20.79,0.07,0.778,1.034,1.812,0.429359823,2.278,111,37,0,0,0,0,21,0,630,769,0,0,0,0,0,0,0,0,0,,13.08034707,784.8208239,18835.69977,11298.29616,303.8016093,0,0,374.8653918,3523.734683,3669.81856,15413.23795,0,18.707745,81.82991943,0.942712263,1,0,0,0,0,0,0,0,0,0,0,0,0,0,0,0,0,0,0,0,0,0,0,0,0,0,0,0,0,0,0,0,0,12.18444539,00:06:49,0,0,0,E 000°00.000,N 00°00.000,0,0,0,113,44,0,45.58219242,0,181,1.876033489,20.00883654,0,0,0
,,,,,,,,,00:06:54,37.08281829,2.078353667,77.07121138,2774.218304,2577.276762,343.9787497,84.54147153,27.78123526,29.90412691,44.74545652,0.929010078,16.55053974,4.067713445,134,20.70312167,0,0,0,0,,15.4,5.12,20.79,0.07,0.744,0.874,1.618,0.459826947,2.038,111,36,0,0,0,0,21,0,630,769,0,0,0,0,0,0,0,0,0,,13.67741076,820.6446458,19695.4715,11814.01661,317.6688951,0,0,487.3964661,4581.526781,3623.766942,15219.82115,0,23.26182839,77.27573902,0.929010078,1,0,0,0,0,0,0,0,0,0,0,0,0,0,0,0,0,0,0,0,0,0,0,0,0,0,0,0,0,0,0,0,0,12.78441615,00:06:50,0,0,0,E 000°00.000,N 00°00.000,0,0,0,119,42,0,45.80517374,0,182,1.886892185,20.00883654,0,0,0
,,,,,,,,,00:06:57,33.51955307,2.390412657,80.12556392,2741.919764,2613.345912,400.373724,94.63749769,29.22243203,30.66014474,44.22451232,0.953108091,16.74914676,3.959044369,134,20.46208779,0,0,0,0,,15.55,5.05,20.8,0.06,0.824,0.966,1.79,0.460335196,2.447,112,36,0,0,0,0,21,0,630,769,0,0,0,0,0,0,0,0,0,,13.59990752,815.9944512,19583.86683,11747.07232,315.8688198,0,0,318.2022179,2991.100848,3975.732333,16698.0758,0,15.27329038,85.26444722,0.953108091,3,0,0,0,0,0,0,0,0,0,0,0,0,0,0,0,0,0,0,0,0,0,0,0,0,0,0,0,0,0,0,0,0,12.63557495,00:06:53,0,0,0,E 000°00.000,N 00°00.000,0,0,0,117,40,0,46.48710669,0,183,1.903771099,20.0184608,0,0,0
,,,,,,,,,00:06:59,34.05221339,1.977393405,67.3346222,2412.879556,2252.476824,327.7639198,80.46226905,27.90633376,29.89359157,38.91741219,0.93352228,16.57555441,4.069107788,135,17.8731819,0,0,0,0,,15.25,5.23,20.8,0.07,0.768,0.994,1.762,0.435868331,1.967,110,37,0,0,0,0,21,0,630,769,0,0,0,0,0,0,0,0,0,,11.90941143,714.564686,17149.55246,10286.8874,276.6056849,0,0,396.9701374,3731.519292,3216.721207,13510.22907,0,21.75869778,78.77890165,0.93352228,2,0,0,0,0,0,0,0,0,0,0,0,0,0,0,0,0,0,0,0,0,0,0,0,0,0,0,0,0,0,0,0,0,11.11926063,00:06:55,0,0,0,E 000°00.000,N 00°00.000,0,0,0,103,49,0,46.91226201,0,184,1.828238428,20.0184608,0,0,0
,,,,,,,,,00:07:01,32.50270856,2.054898253,66.78975902,2446.689535,2270.491583,338.5738064,84.94939178,27.29801148,29.41643102,39.46273444,0.927985161,16.4764268,4.133995037,135,18.12362619,0,0,0,0,,15.12,5.34,20.79,0.07,0.794,1.052,1.846,0.430119177,2.064,109,38,0,0,0,0,21,0,630,769,0,0,0,0,0,0,0,0,0,,12.05953122,723.5718732,17365.72496,10416.55505,280.092338,0,0,436.0594109,4098.958462,3180.980407,13360.11771,0,23.60372787,76.93383226,0.927985161,2,0,0,0,0,0,0,0,0,0,0,0,0,0,0,0,0,0,0,0,0,0,0,0,0,0,0,0,0,0,0,0,0,11.27506698,00:06:57,0,0,0,E 000°00.000,N 00°00.000,0,0,0,104,50,0,47.31174439,0,185,1.824709877,20.00883654,0,0,0
,,,,,,,,,00:07:03,31.28258603,2.173195125,67.98316344,2527.266299,2324.509812,356.6242774,90.35433507,26.89988129,29.24623638,40.76235967,0.919772409,16.41013609,4.157672454,136,18.58284044,0,0,0,0,,15.06,5.36,20.78,0.07,0.808,1.11,1.918,0.421272158,2.158,108,38,0,0,0,0,21,0,630,769,0,0,0,0,0,0,0,0,0,,12.43101252,745.8607509,17900.65802,10737.42618,288.7202907,0,0,501.7849956,4716.778958,3161.927474,13280.09539,0,26.34975179,74.18774983,0.919772409,2,0,0,0,0,0,0,0,0,0,0,0,0,0,0,0,0,0,0,0,0,0,0,0,0,0,0,0,0,0,0,0,0,11.64638848,00:06:59,0,0,0,E 000°00.000,N 00°00.000,0,0,0,108,49,0,47.71992012,0,186,1.83240137,19.99921228,0,0,0
,,,,,,,,,00:07:04,30.09027081,2.32922462,70.08699959,2620.988887,2399.998684,381.7113727,96.98303912,26.74067026,29.2029325,42.27401431,0.915684418,16.38791594,4.163747811,136,19.27197711,0,0,0,0,,15.01,5.39,20.78,0.07,0.84,1.154,1.994,0.421263791,2.323,108,38,0,0,0,0,21,0,630,769,0,0,0,0,0,0,0,0,0,,12.87875736,772.7254413,18545.41059,11124.17079,299.1195257,0,0,546.9088969,5140.943631,3215.272245,13504.14343,0,27.72084018,72.81663224,0.915684418,1,0,0,0,0,0,0,0,0,0,0,0,0,0,0,0,0,0,0,0,0,0,0,0,0,0,0,0,0,0,0,0,0,12.0782898,00:07:00,0,0,0,E 000°00.000,N 00°00.000,0,0,0,112,47,0,47.93083486,0,187,1.845637468,19.99921228,0,0,0
